61.000000	134.138992	6.799138	-3.347210	225.012951	0.000000	-0.016000	0.000000	0.000000	0.000000	0.000000	0.000000	0.000000	1772929773.162359	0.000000
61.000000	-48.409265	-4.379423	-13.108349	29.440492	0.000000	-0.016000	0.000000	0.000000	0.000000	0.000000	0.000000	0.000000	1772929773.162359	0.000000
0.000000	146.619038	2.142963	6.451327	-243.532935	0.000000	-0.016000	0.000000	0.000000	0.000000	0.000000	0.000000	0.000000	1772929773.191430	0.000000
1.000000	381.164994	9.981793	7.820131	-287.142039	0.000000	-0.016000	0.000000	0.000000	0.000000	0.000000	0.000000	0.000000	1772929773.204859	0.000000
1.000000	431.313312	12.221993	12.412728	-386.933789	0.000000	-0.016000	0.000000	0.000000	0.000000	0.000000	0.000000	0.000000	1772929773.204859	0.000000
2.000000	668.617444	15.681401	7.311504	-247.351373	-0.016000	-0.016000	0.000000	0.000000	0.000000	0.000000	0.000000	0.000000	1772929773.221596	0.000000
2.000000	460.832342	11.451574	5.026426	-417.039984	-0.016000	-0.016000	0.000000	0.000000	0.000000	0.000000	0.000000	0.000000	1772929773.221596	0.000000
3.000000	361.448241	6.473767	8.018346	-288.301408	-0.016000	-0.016000	0.000000	0.000000	0.000000	0.000000	0.000000	0.000000	1772929773.222382	0.000000
3.000000	127.994336	4.304625	7.075891	-152.107341	-0.016000	-0.016000	0.000000	0.000000	0.000000	0.000000	0.000000	0.000000	1772929773.222382	0.000000
4.000000	74.558646	-0.235614	8.414775	-148.891027	-0.016000	-0.016000	0.000000	0.000000	0.000000	0.000000	0.000000	0.000000	1772929773.234587	0.000000
4.000000	-164.761293	-5.176022	9.016899	-223.904070	-0.016000	-0.016000	0.000000	0.000000	0.000000	0.000000	0.000000	0.000000	1772929773.234587	0.000000
5.000000	39.792536	1.626856	7.075891	-31.409550	-0.016000	-0.016000	0.000000	0.000000	0.000000	0.000000	0.000000	0.000000	1772929773.250285	0.000000
5.000000	142.108719	-2.711427	5.355537	-246.360300	-0.016000	-0.016000	0.000000	0.000000	0.000000	0.000000	0.000000	0.000000	1772929773.250285	0.000000
6.000000	-97.566510	8.590550	8.672828	-297.613759	-0.016000	-0.016000	0.000000	0.000000	0.000000	0.000000	0.000000	0.000000	1772929773.251119	0.000000
6.000000	-67.101285	9.409588	7.827611	-385.550026	-0.016000	-0.016000	0.000000	0.000000	0.000000	0.000000	0.000000	0.000000	1772929773.251119	0.000000
7.000000	171.605309	-1.346364	6.144656	-230.073035	-0.016000	-0.016000	0.000000	0.000000	0.000000	0.000000	0.000000	0.000000	1772929773.264560	0.000000
7.000000	-17.573790	4.196168	12.435167	-427.040476	-0.016000	-0.016000	0.000000	0.000000	0.000000	0.000000	0.000000	0.000000	1772929773.264560	0.000000
8.000000	-129.288341	-0.366510	10.000492	-299.999815	-0.016000	-0.016000	0.000000	0.000000	0.000000	0.000000	0.000000	0.000000	1772929773.280362	0.000000
8.000000	-373.299984	9.959354	5.131143	-126.956514	-0.016000	-0.016000	0.000000	0.000000	0.000000	0.000000	0.000000	0.000000	1772929773.280362	0.000000
9.000000	-391.778830	11.750766	7.666795	-179.449750	-0.016000	-0.016000	0.000000	0.000000	0.000000	0.000000	0.000000	0.000000	1772929773.280967	0.000000
9.000000	-624.520284	-2.584271	4.386903	-266.681046	-0.016000	-0.016000	0.000000	0.000000	0.000000	0.000000	0.000000	0.000000	1772929773.280967	0.000000
10.000000	-461.426987	-0.665702	10.453020	-489.253712	-0.016000	-0.016000	0.544000	0.000000	0.000000	0.000000	0.000000	0.000000	1772929773.294612	0.000000
10.000000	-349.963008	7.906149	5.905302	-730.189287	-0.016000	-0.016000	0.544000	0.000000	0.000000	0.000000	0.000000	0.000000	1772929773.294612	0.000000
11.000000	-554.142846	3.601524	4.768372	-858.017198	-0.016000	-0.016000	0.544000	0.000000	0.000000	0.000000	0.000000	0.000000	1772929773.310350	0.000000
11.000000	-549.520330	8.699007	9.862116	-909.018213	-0.016000	-0.016000	0.544000	0.000000	0.000000	0.000000	0.000000	0.000000	1772929773.310350	0.000000
12.000000	-364.933828	4.663655	10.894329	-1122.484223	-0.016000	-0.016000	0.544000	0.000000	0.000000	0.000000	0.000000	0.000000	1772929773.311065	0.000000
12.000000	-478.267756	-3.298592	6.529865	-996.610410	-0.016000	-0.016000	0.544000	0.000000	0.000000	0.000000	0.000000	0.000000	1772929773.311065	0.000000
13.000000	-554.763670	3.070458	8.934621	-924.467740	-0.016000	-0.016000	0.544000	0.000000	0.000000	0.000000	0.000000	0.000000	1772929773.324646	0.000000
13.000000	-458.902554	8.422255	6.436368	-946.581768	-0.016000	-0.016000	0.544000	0.000000	0.000000	0.000000	0.000000	0.000000	1772929773.324646	0.000000
14.000000	-415.676790	14.873582	5.684648	-1118.239437	-0.016000	-0.016000	0.544000	0.000000	0.000000	0.000000	0.000000	0.000000	1772929773.340329	0.000000
14.000000	-528.543231	5.654729	6.256853	-959.929471	-0.016000	-0.016000	0.544000	0.000000	0.000000	0.000000	0.000000	0.000000	1772929773.340329	0.000000
15.000000	-521.381323	-3.799738	3.122816	-867.209872	-0.016000	-0.016000	0.544000	0.000000	0.000000	0.000000	0.000000	0.000000	1772929773.340980	0.000000
15.000000	-393.824555	0.467487	5.478953	-634.803139	-0.016000	-0.016000	0.544000	0.000000	0.000000	0.000000	0.000000	0.000000	1772929773.340980	0.000000
16.000000	-461.890734	2.677768	9.286172	-574.426194	-0.016000	-0.016000	0.544000	0.000000	0.000000	0.000000	0.000000	0.000000	1772929773.354689	0.000000
16.000000	-544.348048	-2.666549	8.190381	-483.542885	-0.016000	-0.016000	0.544000	0.000000	0.000000	0.000000	0.000000	0.000000	1772929773.354689	0.000000
17.000000	-612.410488	9.828457	7.146949	-647.831080	-0.016000	-0.016000	0.544000	0.000000	0.000000	0.000000	0.000000	0.000000	1772929773.370274	0.000000
17.000000	-769.574173	11.705887	7.371343	-403.329511	-0.016000	-0.016000	0.544000	0.000000	0.000000	0.000000	0.000000	0.000000	1772929773.370274	0.000000
18.000000	-559.530172	0.841477	10.752212	-514.868287	-0.016000	-0.016000	0.544000	0.000000	0.000000	0.000000	0.000000	0.000000	1772929773.370992	0.000000
18.000000	-738.121615	6.817838	7.016052	-495.304870	-0.016000	-0.016000	0.544000	0.000000	0.000000	0.000000	0.000000	0.000000	1772929773.370992	0.000000
19.000000	-776.648194	10.295945	5.101224	-321.700584	-0.016000	-0.016000	0.544000	0.000000	0.000000	0.000000	0.000000	0.000000	1772929773.384618	0.000000
19.000000	-576.365332	5.841724	6.851497	-336.039361	-0.016000	-0.016000	0.544000	0.000000	0.000000	0.000000	0.000000	0.000000	1772929773.384618	0.000000
20.000000	-656.847979	2.303778	14.712766	-230.338568	-0.016000	-0.016000	0.800000	0.000000	0.000000	0.000000	0.000000	0.000000	1772929773.400270	0.000000
20.000000	-692.952973	4.970327	6.443848	-29.176830	-0.016000	-0.016000	0.800000	0.000000	0.000000	0.000000	0.000000	0.000000	1772929773.400270	0.000000
21.000000	-937.727555	10.086510	6.051158	-29.274067	-0.016000	-0.016000	0.800000	0.000000	0.000000	0.000000	0.000000	0.000000	1772929773.400995	0.000000
21.000000	-917.102007	15.322370	10.920508	211.498822	-0.016000	-0.016000	0.800000	0.000000	0.000000	0.000000	0.000000	0.000000	1772929773.400995	0.000000
22.000000	-1011.392365	16.653775	5.662209	92.291381	-0.016000	-0.016000	0.800000	0.000000	0.000000	0.000000	0.000000	0.000000	1772929773.414587	0.000000
22.000000	-850.916998	14.862362	3.855837	317.633443	-0.016000	-0.016000	0.800000	0.000000	0.000000	0.000000	0.000000	0.000000	1772929773.414587	0.000000
23.000000	-1003.667601	11.743286	10.782132	438.142369	-0.016000	-0.016000	0.800000	0.000000	0.000000	0.000000	0.000000	0.000000	1772929773.430281	0.000000
23.000000	-792.735374	11.036445	6.541085	601.067371	-0.016000	-0.016000	0.800000	0.000000	0.000000	0.000000	0.000000	0.000000	1772929773.430281	0.000000
24.000000	-814.570780	0.841477	6.728080	732.882015	-0.016000	-0.016000	0.800000	0.000000	0.000000	0.000000	0.000000	0.000000	1772929773.431062	0.000000
24.000000	-586.272327	7.412482	7.644356	678.732004	-0.016000	-0.016000	0.800000	0.000000	0.000000	0.000000	0.000000	0.000000	1772929773.431062	0.000000
25.000000	-696.206686	4.024132	8.713967	813.301084	-0.016000	-0.016000	0.800000	0.000000	0.000000	0.000000	0.000000	0.000000	1772929773.444585	0.000000
25.000000	-718.709664	5.437815	5.426595	1006.508055	-0.016000	-0.016000	0.800000	0.000000	0.000000	0.000000	0.000000	0.000000	1772929773.444585	0.000000
26.000000	-940.016374	14.750165	11.720846	971.439013	-0.016000	-0.016000	0.800000	0.000000	0.000000	0.000000	0.000000	0.000000	1772929773.476637	0.000000
26.000000	-914.547655	10.056591	9.316091	1204.560067	-0.016000	-0.016000	0.800000	0.000000	0.000000	0.000000	0.000000	0.000000	1772929773.476637	0.000000
27.000000	-1013.628825	2.277599	9.301131	1079.525862	-0.016000	-0.016000	0.800000	0.000000	0.000000	0.000000	0.000000	0.000000	1772929773.477387	0.000000
27.000000	-851.133912	0.086018	9.577884	853.108579	-0.016000	-0.016000	0.800000	0.000000	0.000000	0.000000	0.000000	0.000000	1772929773.477387	0.000000
28.000000	-1018.062476	-0.905056	9.301131	984.347278	-0.016000	-0.016000	0.800000	0.000000	0.000000	0.000000	0.000000	0.000000	1772929773.478071	0.000000
28.000000	-1258.975612	14.219100	9.693821	1054.096412	-0.016000	-0.016000	0.800000	0.000000	0.000000	0.000000	0.000000	0.000000	1772929773.478071	0.000000
29.000000	-1254.794404	2.846064	7.371343	1142.569356	-0.016000	-0.016000	0.800000	0.000000	0.000000	0.000000	0.000000	0.000000	1772929773.478880	0.000000
29.000000	-1268.977974	5.680908	9.880816	1081.227517	-0.016000	-0.016000	0.800000	0.000000	0.000000	0.000000	0.000000	0.000000	1772929773.478880	0.000000
30.000000	-1162.714327	14.349996	8.010866	1315.966077	-0.016000	-0.016000	0.928000	0.000000	0.000000	0.000000	0.000000	0.000000	1772929773.489535	0.000000
30.000000	-957.627563	6.152135	6.200754	1500.500221	-0.016000	-0.016000	0.928000	0.000000	0.000000	0.000000	0.000000	0.000000	1772929773.489535	0.000000
31.000000	-1140.764854	4.080231	6.099777	1338.098805	-0.016000	-0.016000	0.928000	0.000000	0.000000	0.000000	0.000000	0.000000	1772929773.504529	0.000000
31.000000	-1145.316312	8.747626	11.085063	1196.180822	-0.016000	-0.016000	0.928000	0.000000	0.000000	0.000000	0.000000	0.000000	1772929773.504529	0.000000
32.000000	-1112.070472	14.892282	11.017745	1311.979344	-0.016000	-0.016000	0.928000	0.000000	0.000000	0.000000	0.000000	0.000000	1772929773.520238	0.000000
32.000000	-892.471026	10.778392	6.623363	1360.319421	-0.016000	-0.016000	0.928000	0.000000	0.000000	0.000000	0.000000	0.000000	1772929773.520238	0.000000
33.000000	-907.851364	-2.524432	11.462793	1246.626462	-0.016000	-0.016000	0.928000	0.000000	0.000000	0.000000	0.000000	0.000000	1772929773.520924	0.000000
33.000000	-982.727902	7.251666	7.835090	1018.217682	-0.016000	-0.016000	0.928000	0.000000	0.000000	0.000000	0.000000	0.000000	1772929773.520924	0.000000
34.000000	-1146.537390	6.933775	8.134282	872.885170	-0.016000	-0.016000	0.928000	0.000000	0.000000	0.000000	0.000000	0.000000	1772929773.534609	0.000000
34.000000	-963.985393	10.898068	10.389442	923.910495	-0.016000	-0.016000	0.928000	0.000000	0.000000	0.000000	0.000000	0.000000	1772929773.534609	0.000000
35.000000	-1120.960214	14.462193	12.233213	740.702146	-0.016000	-0.016000	0.928000	0.000000	0.000000	0.000000	0.000000	0.000000	1772929773.550231	0.000000
35.000000	-1357.493926	4.697314	6.858977	816.809110	-0.016000	-0.016000	0.928000	0.000000	0.000000	0.000000	0.000000	0.000000	1772929773.550231	0.000000
36.000000	-1166.822607	3.953074	11.159861	895.382538	-0.016000	-0.016000	0.928000	0.000000	0.000000	0.000000	0.000000	0.000000	1772929773.550946	0.000000
36.000000	-1188.226054	-1.481000	9.001939	790.272650	-0.016000	-0.016000	0.928000	0.000000	0.000000	0.000000	0.000000	0.000000	1772929773.550946	0.000000
37.000000	-1055.001468	7.180608	12.435167	704.776667	-0.016000	-0.016000	0.928000	0.000000	0.000000	0.000000	0.000000	0.000000	1772929773.564543	0.000000
37.000000	-887.068740	13.669334	10.157568	867.423046	-0.016000	-0.016000	0.928000	0.000000	0.000000	0.000000	0.000000	0.000000	1772929773.564543	0.000000
38.000000	-1116.348917	3.904456	13.179407	691.359776	-0.016000	-0.016000	0.928000	0.000000	0.000000	0.000000	0.000000	0.000000	1772929773.580250	0.000000
38.000000	-1335.484615	9.951874	8.799985	779.322223	-0.016000	-0.016000	0.928000	0.000000	0.000000	0.000000	0.000000	0.000000	1772929773.580250	0.000000
39.000000	-1473.608470	10.961647	6.301731	550.335628	-0.016000	-0.016000	0.928000	0.000000	0.000000	0.000000	0.000000	0.000000	1772929773.580993	0.000000
39.000000	-1461.767947	5.176022	10.254806	455.899414	-0.016000	-0.016000	0.928000	0.000000	0.000000	0.000000	0.000000	0.000000	1772929773.580993	0.000000
40.000000	-1499.817689	9.349750	11.668488	622.433420	-0.016000	-0.016000	0.992000	0.000000	0.000000	0.000000	0.000000	0.000000	1772929773.594531	0.000000
40.000000	-1424.039836	9.368449	7.734113	484.995836	-0.016000	-0.016000	0.992000	0.000000	0.000000	0.000000	0.000000	0.000000	1772929773.594531	0.000000
41.000000	-1483.934334	11.088803	10.408142	546.251657	-0.016000	-0.016000	0.992000	0.000000	0.000000	0.000000	0.000000	0.000000	1772929773.610256	0.000000
41.000000	-1492.509925	8.224040	6.675721	497.199130	-0.016000	-0.016000	0.992000	0.000000	0.000000	0.000000	0.000000	0.000000	1772929773.610256	0.000000
42.000000	-1435.891579	6.541085	14.177961	542.279884	-0.016000	-0.016000	0.992000	0.000000	0.000000	0.000000	0.000000	0.000000	1772929773.610977	0.000000
42.000000	-1461.206962	-0.460008	7.932328	513.089965	-0.016000	-0.016000	0.992000	0.000000	0.000000	0.000000	0.000000	0.000000	1772929773.610977	0.000000
43.000000	-1508.699951	14.185441	10.774652	506.216028	-0.016000	-0.016000	0.992000	0.000000	0.000000	0.000000	0.000000	0.000000	1772929773.624617	0.000000
43.000000	-1450.293934	13.426241	7.610696	562.568841	-0.016000	-0.016000	0.992000	0.000000	0.000000	0.000000	0.000000	0.000000	1772929773.624617	0.000000
44.000000	-1411.694426	4.932928	6.290512	416.918437	-0.016000	-0.016000	0.992000	0.000000	0.000000	0.000000	0.000000	0.000000	1772929773.640318	0.000000
44.000000	-1521.684884	17.966479	5.422855	568.982769	-0.016000	-0.016000	0.992000	0.000000	0.000000	0.000000	0.000000	0.000000	1772929773.640318	0.000000
45.000000	-1485.867862	13.441200	8.033305	577.696736	-0.016000	-0.016000	0.992000	0.000000	0.000000	0.000000	0.000000	0.000000	1772929773.640996	0.000000
45.000000	-1399.479913	2.827364	4.910489	401.824201	-0.016000	-0.016000	0.992000	0.000000	0.000000	0.000000	0.000000	0.000000	1772929773.640996	0.000000
46.000000	-1504.503784	10.007972	9.147795	576.529888	-0.016000	-0.016000	0.992000	0.000000	0.000000	0.000000	0.000000	0.000000	1772929773.654546	0.000000
46.000000	-1494.248978	-0.830258	8.074444	508.856398	-0.016000	-0.016000	0.992000	0.000000	0.000000	0.000000	0.000000	0.000000	1772929773.654546	0.000000
47.000000	-1394.101937	2.647849	11.331897	466.842362	-0.016000	-0.016000	0.992000	0.000000	0.000000	0.000000	0.000000	0.000000	1772929773.670285	0.000000
47.000000	-1471.357050	-0.905056	8.160462	523.969334	-0.016000	-0.016000	0.992000	0.000000	0.000000	0.000000	0.000000	0.000000	1772929773.670285	0.000000
48.000000	-1512.589447	7.692974	11.335637	540.817583	-0.016000	-0.016000	0.992000	0.000000	0.000000	0.000000	0.000000	0.000000	1772929773.670990	0.000000
48.000000	-1439.728716	8.220300	8.141762	525.210980	-0.016000	-0.016000	0.992000	0.000000	0.000000	0.000000	0.000000	0.000000	1772929773.670990	0.000000
49.000000	-1404.599836	4.046572	10.505379	394.624894	-0.016000	-0.016000	0.992000	0.000000	0.000000	0.000000	0.000000	0.000000	1772929773.684563	0.000000
49.000000	-1520.648932	-0.112197	11.874182	591.680222	-0.016000	-0.016000	0.992000	0.000000	0.000000	0.000000	0.000000	0.000000	1772929773.684563	0.000000
50.000000	-1460.391664	2.962001	10.404402	527.092150	-0.016000	-0.016000	1.040000	0.000000	0.000000	0.000000	0.000000	0.000000	1772929773.700288	0.000000
50.000000	-1382.287593	9.245033	8.538192	374.724886	-0.016000	-0.016000	1.040000	0.000000	0.000000	0.000000	0.000000	0.000000	1772929773.700288	0.000000
51.000000	-1514.964284	11.859223	6.944994	586.545340	-0.016000	-0.016000	1.040000	0.000000	0.000000	0.000000	0.000000	0.000000	1772929773.701021	0.000000
51.000000	-1489.072957	2.872243	3.661362	509.144370	-0.016000	-0.016000	1.040000	0.000000	0.000000	0.000000	0.000000	0.000000	1772929773.701021	0.000000
52.000000	-1389.385923	10.247326	8.972020	445.005086	-0.032000	-0.016000	1.040000	0.000000	0.000000	0.000000	0.000000	0.000000	1772929773.714558	0.000000
52.000000	-1472.901629	8.145502	3.676322	526.845317	-0.032000	-0.016000	1.040000	0.000000	0.000000	0.000000	0.000000	0.000000	1772929773.714558	0.000000
53.000000	-1519.111833	8.605510	9.488126	544.052596	-0.032000	-0.016000	1.040000	0.000000	0.000000	0.000000	0.000000	0.000000	1772929773.730259	0.000000
53.000000	-1419.903507	10.931728	9.869596	510.722608	-0.032000	-0.016000	1.040000	0.000000	0.000000	0.000000	0.000000	0.000000	1772929773.730259	0.000000
54.000000	-1422.173626	18.591043	6.260593	427.401377	-0.032000	-0.016000	1.040000	0.000000	0.000000	0.000000	0.000000	0.000000	1772929773.730999	0.000000
54.000000	-1539.011841	7.965987	6.787918	587.476575	-0.032000	-0.016000	1.040000	0.000000	0.000000	0.000000	0.000000	0.000000	1772929773.730999	0.000000
55.000000	-1467.531133	0.370250	7.031012	528.086963	-0.032000	-0.016000	1.040000	0.000000	0.000000	0.000000	0.000000	0.000000	1772929773.744623	0.000000
55.000000	-1384.452995	8.646649	7.606957	366.530765	-0.032000	-0.016000	1.040000	0.000000	0.000000	0.000000	0.000000	0.000000	1772929773.744623	0.000000
56.000000	-1522.047654	2.726387	13.568357	121.703824	-0.032000	-0.016000	1.040000	0.000000	0.000000	0.000000	0.000000	0.000000	1772929773.760286	0.000000
56.000000	-1499.690532	3.444448	10.079030	22.955506	-0.032000	-0.016000	1.040000	0.000000	0.000000	0.000000	0.000000	0.000000	1772929773.760286	0.000000
57.000000	-1396.274819	4.218607	11.926541	-44.897499	-0.032000	-0.016000	1.040000	0.000000	0.000000	0.000000	0.000000	0.000000	1772929773.761074	0.000000
57.000000	-1481.682914	5.688388	10.340823	64.565633	-0.032000	-0.016000	1.040000	0.000000	0.000000	0.000000	0.000000	0.000000	1772929773.761074	0.000000
58.000000	-1529.658351	3.586564	7.995906	70.441016	-0.032000	-0.016000	1.040000	0.000000	0.000000	0.000000	0.000000	0.000000	1772929773.774582	0.000000
58.000000	-1415.213672	-1.200508	5.759446	8.605510	-0.032000	-0.016000	1.040000	0.000000	0.000000	0.000000	0.000000	0.000000	1772929773.774582	0.000000
59.000000	-1419.174226	7.382563	10.120169	-72.393243	-0.032000	-0.016000	1.040000	0.000000	0.000000	0.000000	0.000000	0.000000	1772929773.790384	0.000000
59.000000	-1538.712649	1.207988	7.060931	120.664132	-0.032000	-0.016000	1.040000	0.000000	0.000000	0.000000	0.000000	0.000000	1772929773.790384	0.000000
60.000000	-1469.715234	7.962247	7.782732	44.901239	-0.032000	-0.016000	1.056000	0.000000	0.000000	0.000000	0.000000	0.000000	1772929773.791086	0.000000
60.000000	-1378.188663	11.051404	8.066964	-115.645186	-0.032000	-0.016000	1.056000	0.000000	0.000000	0.000000	0.000000	0.000000	1772929773.791086	0.000000
61.000000	-1518.225477	7.468580	9.981793	125.264209	-0.032000	-0.016000	1.056000	0.000000	0.000000	0.000000	0.000000	0.000000	1772929773.804592	0.000000
61.000000	-1502.458058	4.981547	5.965140	50.578407	-0.032000	-0.016000	1.056000	0.000000	0.000000	0.000000	0.000000	0.000000	1772929773.804592	0.000000
62.000000	-1391.596204	6.230673	4.573898	-53.222516	-0.016000	-0.016000	1.056000	0.000000	0.000000	0.000000	0.000000	0.000000	1772929773.820319	0.000000
62.000000	-1478.178628	4.364463	9.170235	49.703270	-0.016000	-0.016000	1.056000	0.000000	0.000000	0.000000	0.000000	0.000000	1772929773.820319	0.000000
63.000000	-1527.706123	4.959107	8.478353	56.872659	-0.016000	-0.016000	1.056000	0.000000	0.000000	0.000000	0.000000	0.000000	1772929773.821020	0.000000
63.000000	-1420.423353	-1.907349	5.452774	7.805171	-0.016000	-0.016000	1.056000	0.000000	0.000000	0.000000	0.000000	0.000000	1772929773.821020	0.000000
64.000000	-1417.408994	7.928588	8.399815	-73.601231	-0.016000	-0.016000	1.056000	0.000000	0.000000	0.000000	0.000000	0.000000	1772929773.834711	0.000000
64.000000	-1541.267000	6.058638	9.529265	133.017022	-0.016000	-0.016000	1.056000	0.000000	0.000000	0.000000	0.000000	0.000000	1772929773.834711	0.000000
65.000000	-1475.298905	8.818684	10.213667	75.979807	-0.016000	-0.016000	1.056000	0.000000	0.000000	0.000000	0.000000	0.000000	1772929773.850316	0.000000
65.000000	-1387.414996	10.075290	13.792751	-119.093374	-0.016000	-0.016000	1.056000	0.000000	0.000000	0.000000	0.000000	0.000000	1772929773.850316	0.000000
66.000000	-1521.845700	7.012312	7.932328	112.604648	-0.016000	-0.016000	1.056000	0.000000	0.000000	0.000000	0.000000	0.000000	1772929773.851078	0.000000
66.000000	-1518.390032	7.483540	9.087957	46.827287	-0.016000	-0.016000	1.056000	0.000000	0.000000	0.000000	0.000000	0.000000	1772929773.851078	0.000000
67.000000	-1392.714434	8.437214	9.626502	-55.997522	-0.016000	-0.016000	1.056000	0.000000	0.000000	0.000000	0.000000	0.000000	1772929773.864587	0.000000
67.000000	-1480.261752	6.903855	7.449881	37.327941	-0.016000	-0.016000	1.056000	0.000000	0.000000	0.000000	0.000000	0.000000	1772929773.864587	0.000000
68.000000	-1552.568978	-0.856437	9.693821	100.176960	-0.016000	-0.016000	1.056000	0.000000	0.000000	0.000000	0.000000	0.000000	1772929773.880242	0.000000
68.000000	-1429.070002	13.845110	13.082170	23.157461	-0.016000	-0.016000	1.056000	0.000000	0.000000	0.000000	0.000000	0.000000	1772929773.880242	0.000000
69.000000	-1398.163468	11.919061	11.507672	-106.344055	-0.016000	-0.016000	1.056000	0.000000	0.000000	0.000000	0.000000	0.000000	1772929773.880970	0.000000
69.000000	-1552.928008	4.529019	10.954167	-350.841885	-0.016000	-0.016000	1.056000	0.000000	0.000000	0.000000	0.000000	0.000000	1772929773.880970	0.000000
70.000000	-1467.557312	10.808311	12.745579	-453.662954	-0.016000	-0.016000	1.072000	0.000000	0.000000	0.000000	0.000000	0.000000	1772929773.894609	0.000000
70.000000	-1390.522853	8.388596	3.178915	-625.563716	-0.016000	-0.016000	1.072000	0.000000	0.000000	0.000000	0.000000	0.000000	1772929773.894609	0.000000
71.000000	-1536.524807	5.363017	7.393782	-828.900206	-0.016000	-0.016000	1.072000	0.000000	0.000000	0.000000	0.000000	0.000000	1772929773.910250	0.000000
71.000000	-1520.349740	5.153582	3.904456	-914.686032	-0.016000	-0.016000	1.072000	0.000000	0.000000	0.000000	0.000000	0.000000	1772929773.910250	0.000000
72.000000	-1380.331625	8.396075	8.990719	-1065.680752	-0.016000	-0.016000	1.072000	0.000000	0.000000	0.000000	0.000000	0.000000	1772929773.911015	0.000000
72.000000	-1487.113249	7.711674	8.669088	-944.014327	-0.016000	-0.016000	1.072000	0.000000	0.000000	0.000000	0.000000	0.000000	1772929773.911015	0.000000
73.000000	-1560.007639	1.903609	9.136576	-876.890603	-0.016000	-0.016000	1.072000	0.000000	0.000000	0.000000	0.000000	0.000000	1772929773.924660	0.000000
73.000000	-1428.875527	5.056345	7.547118	-976.876828	-0.016000	-0.016000	1.072000	0.000000	0.000000	0.000000	0.000000	0.000000	1772929773.924660	0.000000
74.000000	-1434.264723	14.204140	10.703594	-1061.454666	-0.016000	-0.016000	1.072000	0.000000	0.000000	0.000000	0.000000	0.000000	1772929773.940270	0.000000
74.000000	-1571.979059	6.948734	4.252266	-819.101669	-0.016000	-0.016000	1.072000	0.000000	0.000000	0.000000	0.000000	0.000000	1772929773.940270	0.000000
75.000000	-1469.086931	7.921108	7.696714	-917.490957	-0.016000	-0.016000	1.072000	0.000000	0.000000	0.000000	0.000000	0.000000	1772929773.940966	0.000000
75.000000	-1377.721175	3.429488	10.180008	-1107.313319	-0.016000	-0.016000	1.072000	0.000000	0.000000	0.000000	0.000000	0.000000	1772929773.940966	0.000000
76.000000	-1543.245407	1.305225	6.716860	-1324.910048	-0.016000	-0.016000	1.072000	0.000000	0.000000	0.000000	0.000000	0.000000	1772929773.954638	0.000000
76.000000	-1512.937258	1.828811	5.733267	-1436.703137	-0.016000	-0.016000	1.072000	0.000000	0.000000	0.000000	0.000000	0.000000	1772929773.954638	0.000000
77.000000	-1363.479636	3.384609	12.124756	-1558.234926	-0.016000	-0.016000	1.072000	0.000000	0.000000	0.000000	0.000000	0.000000	1772929773.970294	0.000000
77.000000	-1468.918636	5.108703	6.731820	-1444.893518	-0.016000	-0.016000	1.072000	0.000000	0.000000	0.000000	0.000000	0.000000	1772929773.970294	0.000000
78.000000	-1542.119697	9.884556	5.374236	-1386.812872	-0.016000	-0.016000	1.072000	0.000000	0.000000	0.000000	0.000000	0.000000	1772929773.971061	0.000000
78.000000	-1408.747385	9.476906	6.761739	-1489.506785	-0.016000	-0.016000	1.072000	0.000000	0.000000	0.000000	0.000000	0.000000	1772929773.971061	0.000000
79.000000	-1413.470879	8.571851	11.092543	-1573.856489	-0.016000	-0.016000	1.072000	0.000000	0.000000	0.000000	0.000000	0.000000	1772929773.984668	0.000000
79.000000	-1555.882529	0.302932	7.004833	-1347.327008	-0.016000	-0.016000	1.072000	0.000000	0.000000	0.000000	0.000000	0.000000	1772929773.984668	0.000000
80.000000	-1458.951802	9.278692	11.623609	-1439.261229	-0.016000	-0.016000	1.072000	0.000000	0.000000	0.000000	0.000000	0.000000	1772929774.000257	0.000000
80.000000	-1359.481683	8.373636	11.560031	-1625.904676	-0.016000	-0.016000	1.072000	0.000000	0.000000	0.000000	0.000000	0.000000	1772929774.000257	0.000000
81.000000	-1522.215950	4.611297	8.100623	-1829.185068	-0.016000	-0.016000	1.072000	0.000000	0.000000	0.000000	0.000000	0.000000	1772929774.000971	0.000000
81.000000	-1519.448424	4.211127	8.829904	-1911.436688	-0.016000	-0.016000	1.072000	0.000000	0.000000	0.000000	0.000000	0.000000	1772929774.000971	0.000000
82.000000	-1367.593526	5.183501	8.171681	-2058.205322	-0.016000	-0.016000	1.072000	0.000000	0.000000	0.000000	0.000000	0.000000	1772929774.014554	0.000000
82.000000	-1482.804884	4.955367	10.703594	-1919.563491	-0.016000	-0.016000	1.072000	0.000000	0.000000	0.000000	0.000000	0.000000	1772929774.014554	0.000000
83.000000	-1540.365684	2.030766	10.909288	-1877.138066	-0.016000	-0.016000	1.072000	0.000000	0.000000	0.000000	0.000000	0.000000	1772929774.030234	0.000000
83.000000	-1388.413549	5.385456	13.504779	-1993.411555	-0.016000	-0.016000	1.072000	0.000000	0.000000	0.000000	0.000000	0.000000	1772929774.030234	0.000000
84.000000	-1409.226092	15.023178	11.133682	-2059.899497	-0.016000	-0.016000	1.072000	0.000000	0.000000	0.000000	0.000000	0.000000	1772929774.030969	0.000000
84.000000	-1553.530132	8.261439	10.696114	-2303.413732	-0.016000	-0.016000	1.072000	0.000000	0.000000	0.000000	0.000000	0.000000	1772929774.030969	0.000000
85.000000	-1455.787847	9.615283	5.415375	-2425.431708	-0.016000	-0.016000	1.072000	0.000000	0.000000	0.000000	0.000000	0.000000	1772929774.044696	0.000000
85.000000	-1373.225815	6.129696	7.232967	-2591.300011	-0.016000	-0.016000	1.072000	0.000000	0.000000	0.000000	0.000000	0.000000	1772929774.044696	0.000000
86.000000	-1520.069247	8.399815	13.112089	-2819.660173	-0.016000	-0.016000	1.072000	0.000000	0.000000	0.000000	0.000000	0.000000	1772929774.060284	0.000000
86.000000	-1502.446839	6.548565	12.098576	-2898.826375	-0.016000	-0.016000	1.072000	0.000000	0.000000	0.000000	0.000000	0.000000	1772929774.060284	0.000000
87.000000	-1345.789909	12.064917	7.924848	-3046.915193	-0.016000	-0.016000	1.072000	0.000000	0.000000	0.000000	0.000000	0.000000	1772929774.060951	0.000000
87.000000	-1479.771825	6.858977	12.031258	-2877.531385	-0.016000	-0.016000	1.072000	0.000000	0.000000	0.000000	0.000000	0.000000	1772929774.060951	0.000000
88.000000	-1545.066739	11.365556	10.322124	-2866.565998	-0.016000	-0.016000	1.072000	0.000000	0.000000	0.000000	0.000000	0.000000	1772929774.074755	0.000000
88.000000	-1400.261552	7.722893	8.990719	-2952.288245	-0.016000	-0.016000	1.072000	0.000000	0.000000	0.000000	0.000000	0.000000	1772929774.074755	0.000000
89.000000	-1392.037512	10.251066	10.322124	-3052.936432	-0.016000	-0.016000	1.072000	0.000000	0.000000	0.000000	0.000000	0.000000	1772929774.090260	0.000000
89.000000	-1564.529178	3.104117	7.472320	-3270.136732	-0.016000	-0.016000	1.072000	0.000000	0.000000	0.000000	0.000000	0.000000	1772929774.090260	0.000000
90.000000	-1455.058566	7.292805	2.898422	-3410.663473	-0.016000	-0.016000	1.072000	0.000000	0.000000	0.000000	0.000000	0.000000	1772929774.090993	0.000000
90.000000	-1348.112387	2.928342	6.208234	-3598.294254	-0.016000	-0.016000	1.072000	0.000000	0.000000	0.000000	0.000000	0.000000	1772929774.090993	0.000000
91.000000	-1542.003761	2.662809	5.306918	-3762.952699	-0.016000	-0.016000	1.072000	0.000000	0.000000	0.000000	0.000000	0.000000	1772929774.104565	0.000000
91.000000	-1516.677158	8.889742	7.659315	-3875.733122	-0.016000	-0.016000	1.072000	0.000000	0.000000	0.000000	0.000000	0.000000	1772929774.104565	0.000000
92.000000	-1347.955311	7.629396	8.040785	-4040.744988	-0.016000	-0.016000	1.072000	0.000000	0.000000	0.000000	0.000000	0.000000	1772929774.120280	0.000000
92.000000	-1478.234726	7.333944	8.609250	-3889.047166	-0.016000	-0.016000	1.072000	0.000000	0.000000	0.000000	0.000000	0.000000	1772929774.120280	0.000000
93.000000	-1551.319851	11.855483	8.025825	-3813.123457	-0.016000	-0.016000	1.072000	0.000000	0.000000	0.000000	0.000000	0.000000	1772929774.120973	0.000000
93.000000	-1396.013026	7.580777	11.171081	-3946.237716	-0.016000	-0.016000	1.072000	0.000000	0.000000	0.000000	0.000000	0.000000	1772929774.120973	0.000000
94.000000	-1398.481360	4.349504	10.714813	-4031.754268	-0.016000	-0.016000	1.072000	0.000000	0.000000	0.000000	0.000000	0.000000	1772929774.134572	0.000000
94.000000	-1564.360883	-1.305225	11.077584	-4252.021286	-0.016000	-0.016000	1.072000	0.000000	0.000000	0.000000	0.000000	0.000000	1772929774.134572	0.000000
95.000000	-1473.032526	9.319831	6.675721	-4362.105241	-0.016000	-0.016000	1.072000	0.000000	0.000000	0.000000	0.000000	0.000000	1772929774.150267	0.000000
95.000000	-1351.396019	3.422008	10.157568	-4580.863209	-0.016000	-0.016000	1.072000	0.000000	0.000000	0.000000	0.000000	0.000000	1772929774.150267	0.000000
96.000000	-1536.666923	0.658222	8.444694	-4770.601424	-0.016000	-0.016000	1.072000	0.000000	0.000000	0.000000	0.000000	0.000000	1772929774.150981	0.000000
96.000000	-1527.631325	-0.130896	11.402955	-4820.069081	-0.016000	-0.016000	1.072000	0.000000	0.000000	0.000000	0.000000	0.000000	1772929774.150981	0.000000
97.000000	-1357.484577	8.272659	8.680308	-5011.626756	-0.016000	-0.016000	1.072000	0.000000	0.000000	0.000000	0.000000	0.000000	1772929774.164594	0.000000
97.000000	-1473.440175	5.374236	9.054298	-4865.239592	-0.016000	-0.016000	1.072000	0.000000	0.000000	0.000000	0.000000	0.000000	1772929774.164594	0.000000
98.000000	-1555.329024	11.664748	8.886002	-4795.939246	-0.016000	-0.016000	1.072000	0.000000	0.000000	0.000000	0.000000	0.000000	1772929774.180290	0.000000
98.000000	-1398.204607	0.605864	4.981547	-4931.061831	-0.016000	-0.016000	1.072000	0.000000	0.000000	0.000000	0.000000	0.000000	1772929774.180290	0.000000
99.000000	-1397.318251	6.806618	12.135975	-5001.547726	-0.016000	-0.016000	1.072000	0.000000	0.000000	0.000000	0.000000	0.000000	1772929774.180967	0.000000
99.000000	-1579.627154	3.444448	3.623963	-5219.047218	-0.016000	-0.016000	1.072000	0.000000	0.000000	0.000000	0.000000	0.000000	1772929774.180967	0.000000
100.000000	-1463.652857	2.558092	4.386903	-5343.638245	-0.016000	-0.016000	1.072000	0.000000	0.000000	0.000000	0.000000	0.000000	1772929774.195238	0.000000
100.000000	-1349.245577	8.871043	4.659915	-5551.270011	-0.016000	-0.016000	1.072000	0.000000	0.000000	0.000000	0.000000	0.000000	1772929774.195238	0.000000
0.000000	-69.208719	18.108596	7.758422	155.925779	-0.016000	-0.016000	1.072000	0.000000	0.000000	0.000000	0.000000	0.000000	1772929774.195966	0.000000
1.000000	-58.890335	3.257453	10.380092	56.358422	-0.016000	-0.016000	1.072000	0.000000	0.000000	0.000000	0.000000	0.000000	1772929774.209578	0.000000
1.000000	110.059646	7.756553	5.133013	-116.312759	-0.016000	-0.016000	1.072000	0.000000	0.000000	0.000000	0.000000	0.000000	1772929774.209578	0.000000
2.000000	-7.769642	4.031612	10.675544	60.262878	-0.016000	-0.016000	1.072000	0.000000	0.000000	0.000000	0.000000	0.000000	1772929774.225354	0.000000
2.000000	-81.453151	6.470027	10.918638	95.698430	-0.016000	-0.016000	1.072000	0.000000	0.000000	0.000000	0.000000	0.000000	1772929774.225354	0.000000
3.000000	73.670419	0.688142	8.943971	-1.408072	-0.016000	-0.016000	1.072000	0.000000	0.000000	0.000000	0.000000	0.000000	1772929774.225938	0.000000
3.000000	69.190019	2.221501	7.885579	-120.677222	-0.016000	-0.016000	1.072000	0.000000	0.000000	0.000000	0.000000	0.000000	1772929774.225938	0.000000
4.000000	-94.905571	4.914229	9.991143	-341.026517	-0.016000	-0.016000	1.072000	0.000000	0.000000	0.000000	0.000000	0.000000	1772929774.239534	0.000000
4.000000	10.589527	11.649788	8.457784	-434.026610	-0.016000	-0.016000	1.072000	0.000000	0.000000	0.000000	0.000000	0.000000	1772929774.239534	0.000000
5.000000	109.700615	4.648696	7.732243	-618.388718	-0.016000	-0.016000	1.072000	0.000000	0.000000	0.000000	0.000000	0.000000	1772929774.255326	0.000000
5.000000	-65.558576	6.197014	6.714990	-849.617382	-0.016000	-0.016000	1.072000	0.000000	0.000000	0.000000	0.000000	0.000000	1772929774.255326	0.000000
6.000000	-43.377230	7.371343	6.625233	-930.589956	-0.016000	-0.016000	1.072000	0.000000	0.000000	0.000000	0.000000	0.000000	1772929774.256040	0.000000
6.000000	103.421323	6.802878	5.409765	-1060.772134	-0.016000	-0.016000	1.072000	0.000000	0.000000	0.000000	0.000000	0.000000	1772929774.256040	0.000000
7.000000	4.553328	1.686695	8.483963	-943.017644	-0.016000	-0.016000	1.072000	0.000000	0.000000	0.000000	0.000000	0.000000	1772929774.269532	0.000000
7.000000	-82.107634	4.532759	9.923825	-905.749541	-0.016000	-0.016000	1.072000	0.000000	0.000000	0.000000	0.000000	0.000000	1772929774.269532	0.000000
8.000000	60.984679	-0.501147	7.474190	-977.884731	-0.016000	-0.016000	1.072000	0.000000	0.000000	0.000000	0.000000	0.000000	1772929774.285204	0.000000
8.000000	71.086148	3.751120	9.138446	-1103.096582	-0.016000	-0.016000	1.072000	0.000000	0.000000	0.000000	0.000000	0.000000	1772929774.285204	0.000000
9.000000	-88.570181	-1.735314	6.875806	-1329.336220	-0.016000	-0.016000	1.072000	0.000000	0.000000	0.000000	0.000000	0.000000	1772929774.285991	0.000000
9.000000	0.880746	6.245633	7.148819	-1429.266346	-0.016000	-0.016000	1.072000	0.000000	0.000000	0.000000	0.000000	0.000000	1772929774.285991	0.000000
10.000000	102.920177	9.619023	7.986556	-1608.033564	-0.016000	-0.016000	1.072000	0.000000	0.000000	0.000000	0.000000	0.000000	1772929774.299534	0.000000
10.000000	-58.991312	1.114490	6.146526	-1817.155680	-0.016000	-0.016000	1.072000	0.000000	0.000000	0.000000	0.000000	0.000000	1772929774.299534	0.000000
11.000000	-58.501385	6.069858	8.771935	-1887.394741	-0.016000	-0.016000	1.072000	0.000000	0.000000	0.000000	0.000000	0.000000	1772929774.315312	0.000000
11.000000	103.432543	11.541331	5.106833	-2048.700366	-0.016000	-0.016000	1.072000	0.000000	0.000000	0.000000	0.000000	0.000000	1772929774.315312	0.000000
12.000000	-0.308542	7.782732	7.926718	-1925.575380	-0.016000	-0.016000	1.072000	0.000000	0.000000	0.000000	0.000000	0.000000	1772929774.315938	0.000000
12.000000	-81.210058	7.203047	10.746603	-1866.548539	-0.016000	-0.016000	1.072000	0.000000	0.000000	0.000000	0.000000	0.000000	1772929774.315938	0.000000
13.000000	53.665694	6.054898	10.080900	-1960.188154	-0.016000	-0.016000	1.072000	0.000000	0.000000	0.000000	0.000000	0.000000	1772929774.329567	0.000000
13.000000	56.171427	1.645556	10.331474	-2052.990031	-0.016000	-0.016000	1.072000	0.000000	0.000000	0.000000	0.000000	0.000000	1772929774.329567	0.000000
14.000000	-82.444225	2.393536	8.861693	-1820.315896	-0.016000	-0.016000	1.072000	0.000000	0.000000	0.000000	0.000000	0.000000	1772929774.345278	0.000000
14.000000	9.957484	4.042832	5.712697	-1940.976288	-0.016000	-0.016000	1.072000	0.000000	0.000000	0.000000	0.000000	0.000000	1772929774.345278	0.000000
15.000000	105.474529	8.713967	12.092967	-2120.719620	-0.016000	-0.016000	1.072000	0.000000	0.000000	0.000000	0.000000	0.000000	1772929774.345984	0.000000
15.000000	-65.883948	3.100377	4.381293	-2316.011585	-0.016000	-0.016000	1.072000	0.000000	0.000000	0.000000	0.000000	0.000000	1772929774.345984	0.000000
16.000000	-48.972120	13.452420	8.203471	-2408.503051	-0.016000	-0.016000	1.072000	0.000000	0.000000	0.000000	0.000000	0.000000	1772929774.359639	0.000000
16.000000	88.674898	7.509719	8.274529	-2537.645537	-0.016000	-0.016000	1.072000	0.000000	0.000000	0.000000	0.000000	0.000000	1772929774.359639	0.000000
17.000000	9.273082	8.785025	11.909711	-2447.315733	-0.016000	-0.016000	1.072000	0.000000	0.000000	0.000000	0.000000	0.000000	1772929774.375416	0.000000
17.000000	-75.289796	2.651589	7.193698	-2353.724737	-0.016000	-0.016000	1.072000	0.000000	0.000000	0.000000	0.000000	0.000000	1772929774.375416	0.000000
18.000000	53.082270	-4.072751	9.800408	-2468.936095	-0.016000	-0.016000	1.072000	0.000000	0.000000	0.000000	0.000000	0.000000	1772929774.376070	0.000000
18.000000	69.945479	5.123663	7.526549	-2582.068068	-0.016000	-0.016000	1.072000	0.000000	0.000000	0.000000	0.000000	0.000000	1772929774.376070	0.000000
19.000000	-85.189311	12.229473	10.806441	-2803.707629	-0.016000	-0.016000	1.072000	0.000000	0.000000	0.000000	0.000000	0.000000	1772929774.389545	0.000000
19.000000	-6.797268	6.125956	4.194298	-2909.767452	-0.016000	-0.016000	1.072000	0.000000	0.000000	0.000000	0.000000	0.000000	1772929774.389545	0.000000
20.000000	113.990281	1.739053	8.259569	-3106.867660	-0.016000	-0.016000	1.072000	0.000000	0.000000	0.000000	0.000000	0.000000	1772929774.405341	0.000000
20.000000	-60.203040	-2.662809	9.246903	-3309.422511	-0.016000	-0.016000	1.072000	0.000000	0.000000	0.000000	0.000000	0.000000	1772929774.405341	0.000000
21.000000	-49.076837	5.104963	6.632713	-3388.843027	-0.016000	-0.016000	1.072000	0.000000	0.000000	0.000000	0.000000	0.000000	1772929774.406029	0.000000
21.000000	96.783001	11.773205	4.983417	-3525.311976	-0.016000	-0.016000	1.072000	0.000000	0.000000	0.000000	0.000000	0.000000	1772929774.406029	0.000000
22.000000	-4.355113	8.635429	5.828634	-3395.672084	-0.016000	-0.016000	1.072000	0.000000	0.000000	0.000000	0.000000	0.000000	1772929774.419573	0.000000
22.000000	-85.746556	7.936068	2.896553	-3339.233254	-0.016000	-0.016000	1.072000	0.000000	0.000000	0.000000	0.000000	0.000000	1772929774.419573	0.000000
23.000000	73.221631	10.969127	3.479977	-3454.635347	-0.016000	-0.016000	1.072000	0.000000	0.000000	0.000000	0.000000	0.000000	1772929774.435288	0.000000
23.000000	69.986618	4.012913	8.618599	-3556.383065	-0.016000	-0.016000	1.072000	0.000000	0.000000	0.000000	0.000000	0.000000	1772929774.435288	0.000000
24.000000	-86.737630	7.599477	6.853367	-3767.625704	-0.016000	-0.016000	1.072000	0.000000	0.000000	0.000000	0.000000	0.000000	1772929774.435974	0.000000
24.000000	-7.365733	5.202201	5.133013	-3884.669613	-0.016000	-0.016000	1.072000	0.000000	0.000000	0.000000	0.000000	0.000000	1772929774.435974	0.000000
25.000000	94.288488	6.922555	6.112866	-4072.330313	-0.016000	-0.016000	1.072000	0.000000	0.000000	0.000000	0.000000	0.000000	1772929774.465928	0.000000
25.000000	-63.711066	5.385456	5.043255	-4294.183048	-0.016000	-0.016000	1.072000	0.000000	0.000000	0.000000	0.000000	0.000000	1772929774.465928	0.000000
26.000000	-39.368057	9.768619	10.077160	-4375.290259	-0.016000	-0.016000	1.072000	0.000000	0.000000	0.000000	0.000000	0.000000	1772929774.466681	0.000000
26.000000	101.985202	6.735560	13.547788	-4512.256615	-0.016000	-0.016000	1.072000	0.000000	0.000000	0.000000	0.000000	0.000000	1772929774.466681	0.000000
27.000000	-15.544894	5.198461	9.785448	-4352.125318	-0.016000	-0.016000	1.072000	0.000000	0.000000	0.000000	0.000000	0.000000	1772929774.467398	0.000000
27.000000	-78.330335	6.148396	7.029142	-4322.351975	-0.016000	-0.016000	1.072000	0.000000	0.000000	0.000000	0.000000	0.000000	1772929774.467398	0.000000
28.000000	61.392328	0.583424	7.840700	-4429.799301	-0.016000	-0.016000	1.072000	0.000000	0.000000	0.000000	0.000000	0.000000	1772929774.479580	0.000000
28.000000	54.267818	10.284725	8.008996	-4506.164318	-0.016000	-0.016000	1.072000	0.000000	0.000000	0.000000	0.000000	0.000000	1772929774.479580	0.000000
29.000000	-85.507203	11.470273	7.489150	-4746.645495	-0.016000	-0.016000	1.072000	0.000000	0.000000	0.000000	0.000000	0.000000	1772929774.495279	0.000000
29.000000	6.789788	10.516599	2.488903	-4855.742116	-0.016000	-0.016000	1.072000	0.000000	0.000000	0.000000	0.000000	0.000000	1772929774.495279	0.000000
30.000000	97.979769	9.880816	8.248349	-5037.448896	-0.016000	-0.016000	1.072000	0.000000	0.000000	0.000000	0.000000	0.000000	1772929774.495955	0.000000
30.000000	-63.453013	2.195321	6.890766	-5249.218861	-0.016000	-0.016000	1.072000	0.000000	0.000000	0.000000	0.000000	0.000000	1772929774.495955	0.000000
31.000000	-44.035452	10.654975	4.788942	-5337.020492	-0.016000	-0.016000	1.072000	0.000000	0.000000	0.000000	0.000000	0.000000	1772929774.509668	0.000000
31.000000	102.908957	5.538792	12.399638	-5489.986140	-0.016000	-0.016000	1.072000	0.000000	0.000000	0.000000	0.000000	0.000000	1772929774.509668	0.000000
32.000000	-5.383586	7.461100	7.448011	-5357.907833	-0.016000	-0.016000	1.072000	0.000000	0.000000	0.000000	0.000000	0.000000	1772929774.525287	0.000000
32.000000	-85.780215	6.140916	8.936491	-5293.828387	-0.016000	-0.016000	1.072000	0.000000	0.000000	0.000000	0.000000	0.000000	1772929774.525287	0.000000
33.000000	54.402455	6.619623	9.789188	-5411.986786	-0.016000	-0.016000	1.072000	0.000000	0.000000	0.000000	0.000000	0.000000	1772929774.525991	0.000000
33.000000	52.487626	0.243093	8.192251	-5480.079145	-0.016000	-0.016000	1.072000	0.000000	0.000000	0.000000	0.000000	0.000000	1772929774.525991	0.000000
34.000000	-85.380046	0.295452	7.122639	-5254.372443	-0.016000	-0.016000	1.072000	0.000000	0.000000	0.000000	0.000000	0.000000	1772929774.539605	0.000000
34.000000	5.488303	4.121370	3.767949	-5352.301723	-0.016000	-0.016000	1.072000	0.000000	0.000000	0.000000	0.000000	0.000000	1772929774.539605	0.000000
35.000000	101.944063	10.883109	12.657691	-5535.309988	-0.016000	-0.016000	1.072000	0.000000	0.000000	0.000000	0.000000	0.000000	1772929774.555275	0.000000
35.000000	-58.247072	-0.115937	6.928165	-5747.992488	-0.016000	-0.016000	1.072000	0.000000	0.000000	0.000000	0.000000	0.000000	1772929774.555275	0.000000
36.000000	-57.506572	4.794552	8.147372	-5833.037813	-0.016000	-0.016000	1.072000	0.000000	0.000000	0.000000	0.000000	0.000000	1772929774.555967	0.000000
36.000000	91.506002	4.831951	10.623186	-5972.693157	-0.016000	-0.016000	1.072000	0.000000	0.000000	0.000000	0.000000	0.000000	1772929774.555967	0.000000
37.000000	-0.891966	1.615637	7.582647	-5862.268871	-0.016000	-0.016000	1.072000	0.000000	0.000000	0.000000	0.000000	0.000000	1772929774.569617	0.000000
37.000000	-86.401039	7.715414	10.264155	-5792.867548	-0.016000	-0.016000	1.072000	0.000000	0.000000	0.000000	0.000000	0.000000	1772929774.569617	0.000000
38.000000	55.662801	7.345164	9.852766	-5870.369494	-0.016000	-0.016000	1.072000	0.000000	0.000000	0.000000	0.000000	0.000000	1772929774.585283	0.000000
38.000000	68.318622	3.167695	10.346433	-5997.282999	-0.016000	-0.016000	1.072000	0.000000	0.000000	0.000000	0.000000	0.000000	1772929774.585283	0.000000
39.000000	-88.203671	3.597784	8.899092	-6242.136120	-0.016000	-0.016000	1.072000	0.000000	0.000000	0.000000	0.000000	0.000000	1772929774.585961	0.000000
39.000000	-6.819708	10.022932	12.818507	-6321.945585	-0.016000	-0.016000	1.072000	0.000000	0.000000	0.000000	0.000000	0.000000	1772929774.585961	0.000000
40.000000	111.462108	8.938361	12.250042	-6540.120128	-0.016000	-0.016000	1.072000	0.000000	0.000000	0.000000	0.000000	0.000000	1772929774.599638	0.000000
40.000000	-57.155021	4.009173	7.332074	-6732.996119	-0.016000	-0.016000	1.072000	0.000000	0.000000	0.000000	0.000000	0.000000	1772929774.599638	0.000000
41.000000	-58.501385	8.190381	8.513882	-6802.027192	-0.016000	-0.016000	1.072000	0.000000	0.000000	0.000000	0.000000	0.000000	1772929774.631657	0.000000
41.000000	100.549080	6.455067	7.130119	-6953.160289	-0.016000	-0.016000	1.072000	0.000000	0.000000	0.000000	0.000000	0.000000	1772929774.631657	0.000000
42.000000	-7.608826	2.423455	9.254382	-6826.269224	-0.016000	-0.016000	1.072000	0.000000	0.000000	0.000000	0.000000	0.000000	1772929774.632348	0.000000
42.000000	-82.137553	4.098930	5.114313	-6768.240936	-0.016000	-0.016000	1.072000	0.000000	0.000000	0.000000	0.000000	0.000000	1772929774.632348	0.000000
43.000000	67.024617	7.180608	9.493736	-6873.193748	-0.016000	-0.016000	1.072000	0.000000	0.000000	0.000000	0.000000	0.000000	1772929774.633076	0.000000
43.000000	84.800362	7.188088	9.235683	-6990.166599	-0.016000	-0.016000	1.072000	0.000000	0.000000	0.000000	0.000000	0.000000	1772929774.633076	0.000000
44.000000	-93.600346	8.699007	6.273682	-7208.010162	-0.016000	-0.016000	1.072000	0.000000	0.000000	0.000000	0.000000	0.000000	1772929774.633852	0.000000
44.000000	5.458384	7.606957	5.600500	-7313.153709	-0.016000	-0.016000	1.072000	0.000000	0.000000	0.000000	0.000000	0.000000	1772929774.633852	0.000000
45.000000	97.355206	3.650142	7.511589	-7512.243543	-0.016000	-0.016000	1.072000	0.000000	0.000000	0.000000	0.000000	0.000000	1772929774.644538	0.000000
45.000000	-73.621801	8.706487	10.817661	-7711.305328	-0.016000	-0.016000	1.072000	0.000000	0.000000	0.000000	0.000000	0.000000	1772929774.644538	0.000000
46.000000	-44.581477	9.690081	7.193698	-7807.884505	-0.016000	-0.016000	1.072000	0.000000	0.000000	0.000000	0.000000	0.000000	1772929774.659574	0.000000
46.000000	109.554759	9.633982	7.070281	-7944.454432	-0.016000	-0.016000	1.072000	0.000000	0.000000	0.000000	0.000000	0.000000	1772929774.659574	0.000000
47.000000	1.628726	9.963093	1.789542	-7804.182004	-0.016000	-0.016000	1.072000	0.000000	0.000000	0.000000	0.000000	0.000000	1772929774.675287	0.000000
47.000000	-91.113313	10.841970	6.572874	-7710.527429	-0.016000	-0.016000	1.072000	0.000000	0.000000	0.000000	0.000000	0.000000	1772929774.675287	0.000000
48.000000	66.302816	5.602370	6.430758	-7855.104482	-0.016000	-0.016000	1.072000	0.000000	0.000000	0.000000	0.000000	0.000000	1772929774.676020	0.000000
48.000000	67.409827	8.897222	6.943124	-7974.396071	-0.016000	-0.016000	1.072000	0.000000	0.000000	0.000000	0.000000	0.000000	1772929774.676020	0.000000
49.000000	-102.422770	8.250219	5.263909	-8167.088806	-0.016000	-0.016000	1.072000	0.000000	0.000000	0.000000	0.000000	0.000000	1772929774.689586	0.000000
49.000000	-3.180785	8.014606	11.932151	-8300.670553	-0.016000	-0.016000	1.072000	0.000000	0.000000	0.000000	0.000000	0.000000	1772929774.689586	0.000000
50.000000	108.455229	9.633982	8.543801	-8503.803219	-0.016000	-0.016000	1.072000	0.000000	0.000000	0.000000	0.000000	0.000000	1772929774.705312	0.000000
50.000000	-66.276637	5.449034	10.997176	-8667.781002	-0.016000	-0.016000	1.072000	0.000000	0.000000	0.000000	0.000000	0.000000	1772929774.705312	0.000000
51.000000	-53.972366	4.659915	5.409765	-8751.577201	-0.016000	-0.016000	1.072000	0.000000	0.000000	0.000000	0.000000	0.000000	1772929774.705994	0.000000
51.000000	112.180169	5.071304	9.265602	-8939.716608	-0.016000	-0.016000	1.072000	0.000000	0.000000	0.000000	0.000000	0.000000	1772929774.705994	0.000000
52.000000	-13.435591	6.870196	7.074021	-8795.113376	-0.016000	-0.016000	1.072000	0.000000	0.000000	0.000000	0.000000	0.000000	1772929774.719549	0.000000
52.000000	-87.003163	7.621916	9.086087	-8710.154069	-0.016000	-0.016000	1.072000	0.000000	0.000000	0.000000	0.000000	0.000000	1772929774.719549	0.000000
53.000000	63.778384	3.365910	8.712097	-8842.396931	-0.016000	-0.016000	1.072000	0.000000	0.000000	0.000000	0.000000	0.000000	1772929774.735259	0.000000
53.000000	60.865002	8.295098	9.632112	-8911.835654	-0.016000	-0.016000	1.072000	0.000000	0.000000	0.000000	0.000000	0.000000	1772929774.735259	0.000000
54.000000	-91.831373	1.817591	8.756976	-9144.919309	-0.016000	-0.016000	1.072000	0.000000	0.000000	0.000000	0.000000	0.000000	1772929774.735981	0.000000
54.000000	8.551281	4.895529	5.671558	-9287.256161	-0.016000	-0.016000	1.072000	0.000000	0.000000	0.000000	0.000000	0.000000	1772929774.735981	0.000000
55.000000	110.474775	6.417668	12.238823	-9456.060285	-0.016000	-0.016000	1.072000	0.000000	0.000000	0.000000	0.000000	0.000000	1772929774.749607	0.000000
55.000000	-62.948126	3.818438	5.765056	-9655.855091	-0.016000	-0.016000	1.072000	0.000000	0.000000	0.000000	0.000000	0.000000	1772929774.749607	0.000000
56.000000	-54.380015	11.818084	7.896799	-9747.875329	-0.016000	-0.016000	1.072000	0.000000	0.000000	0.000000	0.000000	0.000000	1772929774.765331	0.000000
56.000000	93.192697	10.123909	6.509296	-9886.378784	-0.016000	-0.016000	1.072000	0.000000	0.000000	0.000000	0.000000	0.000000	1772929774.765331	0.000000
57.000000	0.454398	11.720846	7.002963	-9777.484117	-0.016000	-0.016000	1.072000	0.000000	0.000000	0.000000	0.000000	0.000000	1772929774.766017	0.000000
57.000000	-83.424078	9.772359	10.997176	-9704.013782	-0.016000	-0.016000	1.072000	0.000000	0.000000	0.000000	0.000000	0.000000	1772929774.766017	0.000000
58.000000	66.800223	6.189534	8.760716	-9823.780339	-0.016000	-0.016000	1.072000	0.000000	0.000000	0.000000	0.000000	0.000000	1772929774.779546	0.000000
58.000000	73.068295	4.035352	7.878099	-9920.295937	-0.016000	-0.016000	1.072000	0.000000	0.000000	0.000000	0.000000	0.000000	1772929774.779546	0.000000
59.000000	-87.900739	10.217407	7.620046	-10149.437737	-0.016000	-0.016000	1.072000	0.000000	0.000000	0.000000	0.000000	0.000000	1772929774.795260	0.000000
59.000000	-11.472143	10.153828	8.338107	-10243.088572	-0.016000	-0.016000	1.072000	0.000000	0.000000	0.000000	0.000000	0.000000	1772929774.795260	0.000000
60.000000	116.204301	3.354690	8.644779	-10439.033150	-0.016000	-0.016000	1.072000	0.000000	0.000000	0.000000	0.000000	0.000000	1772929774.796018	0.000000
60.000000	-48.175521	4.629996	6.453197	-10637.051503	-0.016000	-0.016000	1.072000	0.000000	0.000000	0.000000	0.000000	0.000000	1772929774.796018	0.000000
61.000000	-42.382416	6.735560	5.540662	-10709.654181	-0.016000	-0.016000	1.072000	0.000000	0.000000	0.000000	0.000000	0.000000	1772929774.809721	0.000000
61.000000	101.745848	7.719154	7.193698	-10835.812226	-0.016000	-0.016000	1.072000	0.000000	0.000000	0.000000	0.000000	0.000000	1772929774.809721	0.000000
62.000000	2.836714	5.011466	8.214690	-10750.860399	-0.016000	-0.016000	1.072000	0.000000	0.000000	0.000000	0.000000	0.000000	1772929774.825273	0.000000
62.000000	-86.098107	6.466287	11.124332	-10646.375074	-0.016000	-0.016000	1.072000	0.000000	0.000000	0.000000	0.000000	0.000000	1772929774.825273	0.000000
63.000000	66.934859	8.534452	8.925271	-10746.387478	-0.016000	-0.016000	1.072000	0.000000	0.000000	0.000000	0.000000	0.000000	1772929774.825983	0.000000
63.000000	68.068049	8.519492	7.223617	-10844.260660	-0.016000	-0.016000	1.072000	0.000000	0.000000	0.000000	0.000000	0.000000	1772929774.825983	0.000000
64.000000	-84.875160	5.860423	6.513036	-11087.292449	-0.016000	-0.016000	1.072000	0.000000	0.000000	0.000000	0.000000	0.000000	1772929774.839631	0.000000
64.000000	-8.027695	7.494760	6.464417	-11171.922645	-0.016000	-0.016000	1.072000	0.000000	0.000000	0.000000	0.000000	0.000000	1772929774.839631	0.000000
65.000000	95.885425	1.043432	8.929011	-11378.065931	-0.016000	-0.016000	1.072000	0.000000	0.000000	0.000000	0.000000	0.000000	1772929774.855369	0.000000
65.000000	-36.757607	5.998800	7.548988	-11165.635873	-0.016000	-0.016000	1.072000	0.000000	0.000000	0.000000	0.000000	0.000000	1772929774.855369	0.000000
66.000000	-40.785479	3.096637	8.132412	-11236.233965	-0.016000	-0.016000	1.072000	0.000000	0.000000	0.000000	0.000000	0.000000	1772929774.855999	0.000000
66.000000	81.587787	9.712520	3.326641	-11315.684399	-0.016000	-0.016000	1.072000	0.000000	0.000000	0.000000	0.000000	0.000000	1772929774.855999	0.000000
67.000000	16.247995	0.740500	6.909465	-11261.036981	-0.016000	-0.016000	1.072000	0.000000	0.000000	0.000000	0.000000	0.000000	1772929774.869687	0.000000
67.000000	-61.568103	6.630843	9.130966	-11226.959013	-0.016000	-0.016000	1.072000	0.000000	0.000000	0.000000	0.000000	0.000000	1772929774.869687	0.000000
68.000000	40.048719	7.154429	10.118299	-11244.996550	-0.016000	-0.016000	1.072000	0.000000	0.000000	0.000000	0.000000	0.000000	1772929774.885309	0.000000
68.000000	72.634467	7.921108	9.695691	-11384.872549	-0.016000	-0.016000	1.072000	0.000000	0.000000	0.000000	0.000000	0.000000	1772929774.885309	0.000000
69.000000	-66.938599	11.058884	11.842393	-11180.561814	-0.016000	-0.016000	1.072000	0.000000	0.000000	0.000000	0.000000	0.000000	1772929774.885989	0.000000
69.000000	-14.953990	4.719754	10.021062	-11219.434334	-0.016000	-0.016000	1.072000	0.000000	0.000000	0.000000	0.000000	0.000000	1772929774.885989	0.000000
70.000000	81.546649	5.976360	5.660339	-11382.729586	-0.016000	-0.016000	1.072000	0.000000	0.000000	0.000000	0.000000	0.000000	1772929774.899592	0.000000
70.000000	-30.493274	4.424302	8.809334	-11200.218728	-0.016000	-0.016000	1.072000	0.000000	0.000000	0.000000	0.000000	0.000000	1772929774.899592	0.000000
71.000000	-47.588357	11.541331	9.968703	-11236.323722	-0.016000	-0.016000	1.072000	0.000000	0.000000	0.000000	0.000000	0.000000	1772929774.915308	0.000000
71.000000	77.159746	5.688388	10.537168	-11331.373280	-0.016000	-0.016000	1.072000	0.000000	0.000000	0.000000	0.000000	0.000000	1772929774.915308	0.000000
72.000000	3.887626	8.052005	6.969304	-11271.946269	-0.016000	-0.016000	1.072000	0.000000	0.000000	0.000000	0.000000	0.000000	1772929774.915996	0.000000
72.000000	-50.857030	7.476060	6.729950	-11244.046616	-0.016000	-0.016000	1.072000	0.000000	0.000000	0.000000	0.000000	0.000000	1772929774.915996	0.000000
73.000000	27.217122	5.351797	7.167518	-11239.697112	-0.016000	-0.016000	1.072000	0.000000	0.000000	0.000000	0.000000	0.000000	1772929774.929598	0.000000
73.000000	62.611535	2.139223	10.073421	-11375.339544	-0.016000	-0.016000	1.072000	0.000000	0.000000	0.000000	0.000000	0.000000	1772929774.929598	0.000000
74.000000	-52.719500	6.567264	5.084394	-11200.454342	-0.016000	-0.016000	1.072000	0.000000	0.000000	0.000000	0.000000	0.000000	1772929774.945314	0.000000
74.000000	-2.417845	0.265533	10.275375	-11234.102222	-0.016000	-0.016000	1.072000	0.000000	0.000000	0.000000	0.000000	0.000000	1772929774.945314	0.000000
75.000000	85.997130	4.001693	6.337260	-11399.985484	-0.016000	-0.016000	1.072000	0.000000	0.000000	0.000000	0.000000	0.000000	1772929774.945952	0.000000
75.000000	-35.467341	4.529019	7.309634	-11221.509979	-0.016000	-0.016000	1.072000	0.000000	0.000000	0.000000	0.000000	0.000000	1772929774.945952	0.000000
76.000000	-37.786079	3.291112	5.226510	-11281.636350	-0.016000	-0.016000	1.072000	0.000000	0.000000	0.000000	0.000000	0.000000	1772929774.959625	0.000000
76.000000	47.016152	3.702501	5.312528	-11301.005292	-0.016000	-0.016000	1.072000	0.000000	0.000000	0.000000	0.000000	0.000000	1772929774.959625	0.000000
77.000000	15.047487	8.313798	4.699184	-11271.553580	-0.016000	-0.016000	1.072000	0.000000	0.000000	0.000000	0.000000	0.000000	1772929774.975231	0.000000
77.000000	-45.138723	8.242740	7.328334	-11261.743822	-0.016000	-0.016000	1.072000	0.000000	0.000000	0.000000	0.000000	0.000000	1772929774.975231	0.000000
78.000000	15.612212	3.410789	4.788942	-11223.802537	-0.016000	-0.016000	1.072000	0.000000	0.000000	0.000000	0.000000	0.000000	1772929774.975987	0.000000
78.000000	63.512851	2.939561	7.994036	-11376.727047	-0.016000	-0.016000	1.072000	0.000000	0.000000	0.000000	0.000000	0.000000	1772929774.975987	0.000000
79.000000	-46.556145	9.491866	8.753236	-11193.326093	-0.016000	-0.016000	1.072000	0.000000	0.000000	0.000000	0.000000	0.000000	1772929774.989610	0.000000
79.000000	-23.652997	5.419115	8.218430	-11207.032826	-0.016000	-0.016000	1.072000	0.000000	0.000000	0.000000	0.000000	0.000000	1772929774.989610	0.000000
80.000000	76.782016	8.429735	10.282855	-11377.699420	-0.016000	-0.016000	1.072000	0.000000	0.000000	0.000000	0.000000	0.000000	1772929775.021686	0.000000
80.000000	-31.562886	9.121616	11.704017	-11194.616358	-0.016000	-0.016000	1.072000	0.000000	0.000000	0.000000	0.000000	0.000000	1772929775.021686	0.000000
81.000000	-28.556006	10.333344	8.450304	-11271.142191	-0.016000	-0.016000	1.072000	0.000000	0.000000	0.000000	0.000000	0.000000	1772929775.022368	0.000000
81.000000	49.103016	3.036799	8.188511	-11273.980775	-0.016000	-0.016000	1.072000	0.000000	0.000000	0.000000	0.000000	0.000000	1772929775.022368	0.000000
82.000000	4.807641	4.379423	6.830927	-11241.806416	-0.016000	-0.016000	1.072000	0.000000	0.000000	0.000000	0.000000	0.000000	1772929775.023143	0.000000
82.000000	-42.386156	9.764879	11.124332	-11229.722799	-0.016000	-0.016000	1.072000	0.000000	0.000000	0.000000	0.000000	0.000000	1772929775.023143	0.000000
83.000000	23.907310	5.553751	9.572274	-11210.121983	-0.016000	-0.016000	1.072000	0.000000	0.000000	0.000000	0.000000	0.000000	1772929775.023849	0.000000
83.000000	62.981785	5.108703	12.807287	-11368.099097	-0.016000	-0.016000	1.072000	0.000000	0.000000	0.000000	0.000000	0.000000	1772929775.023849	0.000000
84.000000	-50.527918	9.390889	9.123486	-11199.732541	-0.016000	-0.016000	1.072000	0.000000	0.000000	0.000000	0.000000	0.000000	1772929775.034563	0.000000
84.000000	-25.938076	2.501993	4.126980	-11216.700467	-0.016000	-0.016000	1.072000	0.000000	0.000000	0.000000	0.000000	0.000000	1772929775.034563	0.000000
85.000000	68.139107	3.960554	11.745156	-11350.054080	-0.016000	-0.016000	1.072000	0.000000	0.000000	0.000000	0.000000	0.000000	1772929775.049630	0.000000
85.000000	-16.300354	6.735560	8.495183	-11220.653542	-0.016000	-0.016000	1.072000	0.000000	0.000000	0.000000	0.000000	0.000000	1772929775.049630	0.000000
86.000000	-36.507033	11.055144	7.724763	-11274.092972	-0.016000	-0.016000	1.072000	0.000000	0.000000	0.000000	0.000000	0.000000	1772929775.065231	0.000000
86.000000	41.410042	12.824117	4.800162	-11277.313026	-0.016000	-0.016000	1.072000	0.000000	0.000000	0.000000	0.000000	0.000000	1772929775.065231	0.000000
87.000000	-0.203825	7.405002	8.345587	-11276.632364	-0.016000	-0.016000	1.072000	0.000000	0.000000	0.000000	0.000000	0.000000	1772929775.066049	0.000000
87.000000	-35.198068	4.888049	9.774229	-11270.457789	-0.016000	-0.016000	1.072000	0.000000	0.000000	0.000000	0.000000	0.000000	1772929775.066049	0.000000
88.000000	10.578307	7.446141	5.996930	-11209.355304	-0.016000	-0.016000	1.072000	0.000000	0.000000	0.000000	0.000000	0.000000	1772929775.079566	0.000000
88.000000	62.869588	9.405848	9.665771	-11392.804876	-0.016000	-0.016000	1.072000	0.000000	0.000000	0.000000	0.000000	0.000000	1772929775.079566	0.000000
89.000000	-48.306418	10.430581	12.451997	-11201.662330	-0.016000	-0.016000	1.072000	0.000000	0.000000	0.000000	0.000000	0.000000	1772929775.095248	0.000000
89.000000	-19.494229	7.105810	8.109973	-11216.820144	-0.016000	-0.016000	1.072000	0.000000	0.000000	0.000000	0.000000	0.000000	1772929775.095248	0.000000
90.000000	78.221878	7.992166	10.413751	-11376.012726	-0.016000	-0.016000	1.072000	0.000000	0.000000	0.000000	0.000000	0.000000	1772929775.096094	0.000000
90.000000	-40.979954	8.089404	3.476237	-11203.412603	-0.016000	-0.016000	1.072000	0.000000	0.000000	0.000000	0.000000	0.000000	1772929775.096094	0.000000
91.000000	-47.027372	6.836537	8.442824	-11246.496250	-0.016000	-0.016000	1.072000	0.000000	0.000000	0.000000	0.000000	0.000000	1772929775.109593	0.000000
91.000000	55.281331	6.286772	7.216137	-11286.902129	-0.016000	-0.016000	1.072000	0.000000	0.000000	0.000000	0.000000	0.000000	1772929775.109593	0.000000
92.000000	17.396145	8.773805	13.297214	-11282.971495	-0.016000	-0.016000	1.072000	0.000000	0.000000	0.000000	0.000000	0.000000	1772929775.125227	0.000000
92.000000	-52.289411	6.664502	8.169811	-11230.489478	-0.016000	-0.016000	1.072000	0.000000	0.000000	0.000000	0.000000	0.000000	1772929775.125227	0.000000
93.000000	25.238715	7.453621	7.814521	-11214.512626	-0.016000	-0.016000	1.072000	0.000000	0.000000	0.000000	0.000000	0.000000	1772929775.125963	0.000000
93.000000	48.751466	5.273259	8.809334	-11368.630163	-0.016000	-0.016000	1.072000	0.000000	0.000000	0.000000	0.000000	0.000000	1772929775.125963	0.000000
94.000000	-56.534198	8.485833	9.579754	-11188.942930	-0.016000	-0.016000	1.072000	0.000000	0.000000	0.000000	0.000000	0.000000	1772929775.139576	0.000000
94.000000	-15.066187	8.156722	8.742016	-11229.610602	-0.016000	-0.016000	1.072000	0.000000	0.000000	0.000000	0.000000	0.000000	1772929775.139576	0.000000
95.000000	75.667526	3.833397	8.525102	-11381.233626	-0.016000	-0.016000	1.072000	0.000000	0.000000	0.000000	0.000000	0.000000	1772929775.155316	0.000000
95.000000	-44.966687	4.345764	10.582047	-11187.794781	-0.016000	-0.016000	1.072000	0.000000	0.000000	0.000000	0.000000	0.000000	1772929775.155316	0.000000
96.000000	-38.141370	4.132589	9.460077	-11248.336281	-0.016000	-0.016000	1.072000	0.000000	0.000000	0.000000	0.000000	0.000000	1772929775.156056	0.000000
96.000000	63.931720	7.128249	8.405425	-11287.541652	-0.016000	-0.016000	1.072000	0.000000	0.000000	0.000000	0.000000	0.000000	1772929775.156056	0.000000
97.000000	19.430650	4.854390	11.711497	-11279.949655	-0.016000	-0.016000	1.072000	0.000000	0.000000	0.000000	0.000000	0.000000	1772929775.169657	0.000000
97.000000	-49.103016	9.432028	6.696291	-11248.874827	-0.016000	-0.016000	1.072000	0.000000	0.000000	0.000000	0.000000	0.000000	1772929775.169657	0.000000
98.000000	27.557453	12.782978	11.636699	-11224.169048	-0.016000	-0.016000	1.072000	0.000000	0.000000	0.000000	0.000000	0.000000	1772929775.185346	0.000000
98.000000	65.532397	11.773205	11.393605	-11379.666608	-0.016000	-0.016000	1.072000	0.000000	0.000000	0.000000	0.000000	0.000000	1772929775.185346	0.000000
99.000000	-65.031250	5.920262	7.851920	-11191.695496	-0.016000	-0.016000	1.072000	0.000000	0.000000	0.000000	0.000000	0.000000	1772929775.186009	0.000000
99.000000	-20.455383	0.115937	7.545248	-11239.977605	-0.016000	-0.016000	1.072000	0.000000	0.000000	0.000000	0.000000	0.000000	1772929775.186009	0.000000
100.000000	88.233590	9.144055	7.014182	-11392.012018	-0.016000	-0.016000	1.088000	0.000000	0.000000	0.000000	0.000000	0.000000	1772929775.200280	0.000000
100.000000	-30.010827	8.523232	7.440531	-11202.821699	-0.016000	-0.016000	1.088000	0.000000	0.000000	0.000000	0.000000	0.000000	1772929775.200280	0.000000
0.000000	-42.382416	6.501816	6.038068	1.475391	-0.016000	-0.016000	1.088000	0.000000	0.000000	0.000000	0.000000	0.000000	1772929775.200989	0.000000
1.000000	57.054044	3.681932	9.867726	4.183078	-0.016000	-0.016000	1.088000	0.000000	0.000000	0.000000	0.000000	0.000000	1772929775.214535	0.000000
1.000000	10.963517	1.864340	7.047841	-5.559361	-0.016000	-0.016000	1.088000	0.000000	0.000000	0.000000	0.000000	0.000000	1772929775.214535	0.000000
2.000000	-50.015552	3.300462	10.772782	36.140523	-0.016000	-0.016000	1.088000	0.000000	0.000000	0.000000	0.000000	0.000000	1772929775.230279	0.000000
2.000000	29.030973	13.828280	9.564794	30.612951	-0.016000	-0.016000	1.088000	0.000000	0.000000	0.000000	0.000000	0.000000	1772929775.230279	0.000000
3.000000	60.644348	8.835514	6.958084	-102.333013	-0.016000	-0.016000	1.088000	0.000000	0.000000	0.000000	0.000000	0.000000	1772929775.231018	0.000000
3.000000	-63.434313	10.892459	9.998623	83.917745	-0.016000	-0.016000	1.088000	0.000000	0.000000	0.000000	0.000000	0.000000	1772929775.231018	0.000000
4.000000	-8.065094	8.091274	8.237130	42.172982	-0.016000	-0.016000	1.088000	0.000000	0.000000	0.000000	0.000000	0.000000	1772929775.244552	0.000000
4.000000	64.750758	2.709558	9.800408	-93.375952	-0.016000	-0.016000	1.088000	0.000000	0.000000	0.000000	0.000000	0.000000	1772929775.244552	0.000000
5.000000	-30.687749	10.252936	10.155698	57.106402	-0.016000	-0.016000	1.088000	0.000000	0.000000	0.000000	0.000000	0.000000	1772929775.260298	0.000000
5.000000	-34.678222	8.525102	9.938784	-14.116252	-0.016000	-0.016000	1.088000	0.000000	0.000000	0.000000	0.000000	0.000000	1772929775.260298	0.000000
6.000000	56.302324	3.225664	5.110573	-15.137245	-0.016000	-0.016000	1.088000	0.000000	0.000000	0.000000	0.000000	0.000000	1772929775.260982	0.000000
6.000000	8.233390	2.545002	10.458630	-0.589034	-0.016000	-0.016000	1.088000	0.000000	0.000000	0.000000	0.000000	0.000000	1772929775.260982	0.000000
7.000000	-44.428142	12.354760	11.015875	26.820693	-0.016000	-0.016000	1.088000	0.000000	0.000000	0.000000	0.000000	0.000000	1772929775.274536	0.000000
7.000000	19.445610	10.791481	7.474190	59.125948	-0.016000	-0.016000	1.088000	0.000000	0.000000	0.000000	0.000000	0.000000	1772929775.274536	0.000000
8.000000	66.818923	10.469850	8.992589	-100.635098	-0.016000	-0.016000	1.088000	0.000000	0.000000	0.000000	0.000000	0.000000	1772929775.290469	0.000000
8.000000	-49.054398	8.835514	6.382139	70.775737	-0.016000	-0.016000	1.088000	0.000000	0.000000	0.000000	0.000000	0.000000	1772929775.290469	0.000000
9.000000	-11.932151	6.011889	8.296968	43.407149	-0.016000	-0.016000	1.088000	0.000000	0.000000	0.000000	0.000000	0.000000	1772929775.291124	0.000000
9.000000	75.854521	7.006703	8.528842	-103.795313	-0.016000	-0.016000	1.088000	0.000000	0.000000	0.000000	0.000000	0.000000	1772929775.291124	0.000000
10.000000	-28.226895	11.565641	6.954344	71.351681	-0.016000	-0.016000	1.072000	0.000000	0.000000	0.000000	0.000000	0.000000	1772929775.304806	0.000000
10.000000	-44.334644	3.839007	6.127826	13.192497	-0.016000	-0.016000	1.072000	0.000000	0.000000	0.000000	0.000000	0.000000	1772929775.304806	0.000000
11.000000	61.702739	0.379600	9.662032	-9.385279	-0.016000	-0.016000	1.072000	0.000000	0.000000	0.000000	0.000000	0.000000	1772929775.320272	0.000000
11.000000	17.153051	5.619200	5.723917	-7.305895	-0.016000	-0.016000	1.072000	0.000000	0.000000	0.000000	0.000000	0.000000	1772929775.320272	0.000000
12.000000	-50.920608	8.057614	7.500369	30.373597	-0.016000	-0.016000	1.072000	0.000000	0.000000	0.000000	0.000000	0.000000	1772929775.321169	0.000000
12.000000	20.414244	4.250396	10.047241	50.958007	-0.016000	-0.016000	1.072000	0.000000	0.000000	0.000000	0.000000	0.000000	1772929775.321169	0.000000
13.000000	65.667033	10.840100	8.065094	-92.399838	-0.016000	-0.016000	1.072000	0.000000	0.000000	0.000000	0.000000	0.000000	1772929775.334639	0.000000
13.000000	-60.109542	2.058815	5.346187	72.926179	-0.016000	-0.016000	1.072000	0.000000	0.000000	0.000000	0.000000	0.000000	1772929775.334639	0.000000
14.000000	-3.752990	2.907772	6.527995	58.587403	-0.016000	-0.016000	1.072000	0.000000	0.000000	0.000000	0.000000	0.000000	1772929775.350264	0.000000
14.000000	84.089781	11.502062	5.877253	-102.037560	-0.016000	-0.016000	1.072000	0.000000	0.000000	0.000000	0.000000	0.000000	1772929775.350264	0.000000
15.000000	-41.406302	5.742616	7.777122	58.890335	-0.016000	-0.016000	1.072000	0.000000	0.000000	0.000000	0.000000	0.000000	1772929775.350995	0.000000
15.000000	-35.052212	-6.614013	8.835514	5.566841	-0.016000	-0.016000	1.072000	0.000000	0.000000	0.000000	0.000000	0.000000	1772929775.350995	0.000000
16.000000	52.008919	8.551281	7.620046	-4.931058	-0.016000	-0.016000	1.072000	0.000000	0.000000	0.000000	0.000000	0.000000	1772929775.364586	0.000000
16.000000	16.629465	10.323994	8.700877	-31.413290	-0.016000	-0.016000	1.072000	0.000000	0.000000	0.000000	0.000000	0.000000	1772929775.364586	0.000000
17.000000	-51.227280	9.486256	6.501816	24.760008	-0.016000	-0.016000	1.072000	0.000000	0.000000	0.000000	0.000000	0.000000	1772929775.380376	0.000000
17.000000	26.566379	6.355960	6.258723	50.920608	-0.016000	-0.016000	1.072000	0.000000	0.000000	0.000000	0.000000	0.000000	1772929775.380376	0.000000
18.000000	66.923640	6.752389	8.364286	-98.533274	-0.016000	-0.016000	1.072000	0.000000	0.000000	0.000000	0.000000	0.000000	1772929775.381099	0.000000
18.000000	-59.376522	-1.598807	9.082347	73.030896	-0.016000	-0.016000	1.072000	0.000000	0.000000	0.000000	0.000000	0.000000	1772929775.381099	0.000000
19.000000	-17.904771	8.813074	11.199130	56.564117	-0.016000	-0.016000	1.072000	0.000000	0.000000	0.000000	0.000000	0.000000	1772929775.394655	0.000000
19.000000	94.049134	1.064002	8.225910	-123.033359	-0.016000	-0.016000	1.072000	0.000000	0.000000	0.000000	0.000000	0.000000	1772929775.394655	0.000000
20.000000	-26.858092	9.078607	7.466710	68.771150	-0.016000	-0.016000	1.072000	0.000000	0.000000	0.000000	0.000000	0.000000	1772929775.410326	0.000000
20.000000	-41.776552	7.687364	8.233390	10.899938	-0.016000	-0.016000	1.072000	0.000000	0.000000	0.000000	0.000000	0.000000	1772929775.410326	0.000000
21.000000	55.988172	4.153159	6.045548	-8.581200	-0.016000	-0.016000	1.072000	0.000000	0.000000	0.000000	0.000000	0.000000	1772929775.411062	0.000000
21.000000	13.600146	5.735137	8.824294	-0.181385	-0.016000	-0.016000	1.072000	0.000000	0.000000	0.000000	0.000000	0.000000	1772929775.411062	0.000000
22.000000	-55.378569	8.985110	13.615106	28.877638	-0.016000	-0.016000	1.072000	0.000000	0.000000	0.000000	0.000000	0.000000	1772929775.424677	0.000000
22.000000	25.081639	7.668665	6.714990	44.861970	-0.016000	-0.016000	1.072000	0.000000	0.000000	0.000000	0.000000	0.000000	1772929775.424677	0.000000
23.000000	61.938353	1.725964	9.433898	-130.105510	-0.016000	-0.016000	1.072000	0.000000	0.000000	0.000000	0.000000	0.000000	1772929775.440332	0.000000
23.000000	-61.478345	7.111420	8.633559	71.523717	-0.016000	-0.016000	1.072000	0.000000	0.000000	0.000000	0.000000	0.000000	1772929775.440332	0.000000
24.000000	-16.767841	17.134352	4.628126	63.381954	-0.016000	-0.016000	1.072000	0.000000	0.000000	0.000000	0.000000	0.000000	1772929775.440995	0.000000
24.000000	90.974936	2.466464	9.299261	-116.073405	-0.016000	-0.016000	1.072000	0.000000	0.000000	0.000000	0.000000	0.000000	1772929775.440995	0.000000
25.000000	-38.010473	5.032035	6.782309	90.634605	-0.016000	-0.016000	1.072000	0.000000	0.000000	0.000000	0.000000	0.000000	1772929775.454606	0.000000
25.000000	-23.192990	3.061108	4.744063	-12.033128	-0.016000	-0.016000	1.072000	0.000000	0.000000	0.000000	0.000000	0.000000	1772929775.454606	0.000000
26.000000	56.762332	5.619200	7.620046	-7.915498	-0.016000	-0.016000	1.072000	0.000000	0.000000	0.000000	0.000000	0.000000	1772929775.470242	0.000000
26.000000	5.933351	3.868927	9.882686	0.847087	-0.016000	-0.016000	1.072000	0.000000	0.000000	0.000000	0.000000	0.000000	1772929775.470242	0.000000
27.000000	-48.384956	2.253290	8.229650	36.391097	-0.016000	-0.016000	1.072000	0.000000	0.000000	0.000000	0.000000	0.000000	1772929775.470960	0.000000
27.000000	22.886318	4.699184	7.814521	51.047764	-0.016000	-0.016000	1.072000	0.000000	0.000000	0.000000	0.000000	0.000000	1772929775.470960	0.000000
28.000000	64.223432	4.216737	9.594713	-102.333013	-0.016000	-0.016000	1.072000	0.000000	0.000000	0.000000	0.000000	0.000000	1772929775.484652	0.000000
28.000000	-46.159715	1.759623	7.477930	53.718053	-0.016000	-0.016000	1.072000	0.000000	0.000000	0.000000	0.000000	0.000000	1772929775.484652	0.000000
29.000000	-11.801254	12.414598	8.921531	57.327056	-0.016000	-0.016000	1.072000	0.000000	0.000000	0.000000	0.000000	0.000000	1772929775.500311	0.000000
29.000000	61.878515	7.620046	6.139046	-61.283871	-0.016000	-0.016000	1.072000	0.000000	0.000000	0.000000	0.000000	0.000000	1772929775.500311	0.000000
30.000000	-22.145818	3.479977	6.539215	63.894321	-0.016000	-0.016000	1.088000	0.000000	0.000000	0.000000	0.000000	0.000000	1772929775.500968	0.000000
30.000000	-30.257661	6.685071	11.733936	12.373459	-0.016000	-0.016000	1.088000	0.000000	0.000000	0.000000	0.000000	0.000000	1772929775.500968	0.000000
31.000000	66.478592	5.394806	8.947711	-20.384325	-0.016000	-0.016000	1.088000	0.000000	0.000000	0.000000	0.000000	0.000000	1772929775.514587	0.000000
31.000000	5.192851	4.224217	9.744309	18.443317	-0.016000	-0.016000	1.088000	0.000000	0.000000	0.000000	0.000000	0.000000	1772929775.514587	0.000000
32.000000	-43.190235	0.282362	10.993436	38.107711	-0.016000	-0.016000	1.088000	0.000000	0.000000	0.000000	0.000000	0.000000	1772929775.530446	0.000000
32.000000	14.673497	4.048442	5.858553	77.253243	-0.016000	-0.016000	1.088000	0.000000	0.000000	0.000000	0.000000	0.000000	1772929775.530446	0.000000
33.000000	61.411027	3.057368	7.174998	-74.100508	-0.016000	-0.016000	1.088000	0.000000	0.000000	0.000000	0.000000	0.000000	1772929775.530976	0.000000
33.000000	-55.217753	3.663232	8.992589	84.280515	-0.016000	-0.016000	1.088000	0.000000	0.000000	0.000000	0.000000	0.000000	1772929775.530976	0.000000
34.000000	-4.545848	7.425571	7.313374	55.490766	-0.016000	-0.016000	1.088000	0.000000	0.000000	0.000000	0.000000	0.000000	1772929775.544687	0.000000
34.000000	76.909173	10.563347	6.232543	-51.964040	-0.016000	-0.016000	1.088000	0.000000	0.000000	0.000000	0.000000	0.000000	1772929775.544687	0.000000
35.000000	-22.205656	3.693151	12.582893	99.561747	-0.016000	-0.016000	1.088000	0.000000	0.000000	0.000000	0.000000	0.000000	1772929775.560256	0.000000
35.000000	-30.018307	10.372613	8.611120	24.849765	-0.016000	-0.016000	1.088000	0.000000	0.000000	0.000000	0.000000	0.000000	1772929775.560256	0.000000
36.000000	38.571458	9.841547	8.820554	43.395929	-0.016000	-0.016000	1.088000	0.000000	0.000000	0.000000	0.000000	0.000000	1772929775.560959	0.000000
36.000000	22.919977	8.659738	7.451751	-3.951204	-0.016000	-0.016000	1.088000	0.000000	0.000000	0.000000	0.000000	0.000000	1772929775.560959	0.000000
37.000000	-35.291566	3.708111	7.769642	21.128565	-0.016000	-0.016000	1.088000	0.000000	0.000000	0.000000	0.000000	0.000000	1772929775.574552	0.000000
37.000000	9.665771	4.515929	10.312774	89.258322	-0.016000	-0.016000	1.088000	0.000000	0.000000	0.000000	0.000000	0.000000	1772929775.574552	0.000000
38.000000	66.082162	8.940231	8.528842	-95.167364	-0.016000	-0.016000	1.088000	0.000000	0.000000	0.000000	0.000000	0.000000	1772929775.590311	0.000000
38.000000	-40.882716	6.894506	12.508095	60.595729	-0.016000	-0.016000	1.088000	0.000000	0.000000	0.000000	0.000000	0.000000	1772929775.590311	0.000000
39.000000	-29.644317	4.463571	11.139292	57.499092	-0.016000	-0.016000	1.088000	0.000000	0.000000	0.000000	0.000000	0.000000	1772929775.591066	0.000000
39.000000	83.394159	2.657199	8.895352	-103.971089	-0.016000	-0.016000	1.088000	0.000000	0.000000	0.000000	0.000000	0.000000	1772929775.591066	0.000000
40.000000	-17.384925	3.850227	5.783755	53.243086	-0.016000	-0.016000	1.088000	0.000000	0.000000	0.000000	0.000000	0.000000	1772929775.604607	0.000000
40.000000	-34.902616	5.103093	5.832374	-2.907772	-0.016000	-0.016000	1.088000	0.000000	0.000000	0.000000	0.000000	0.000000	1772929775.604607	0.000000
41.000000	56.541677	6.524255	6.875806	-3.588434	-0.016000	-0.016000	1.088000	0.000000	0.000000	0.000000	0.000000	0.000000	1772929775.620310	0.000000
41.000000	5.230250	4.317714	5.383586	-12.377199	-0.016000	-0.016000	1.088000	0.000000	0.000000	0.000000	0.000000	0.000000	1772929775.620310	0.000000
42.000000	-48.945941	3.644533	8.356806	25.421970	-0.016000	-0.016000	1.088000	0.000000	0.000000	0.000000	0.000000	0.000000	1772929775.620980	0.000000
42.000000	17.224109	1.748403	6.688811	40.482547	-0.016000	-0.016000	1.088000	0.000000	0.000000	0.000000	0.000000	0.000000	1772929775.620980	0.000000
43.000000	76.639900	3.124686	10.077160	-117.195375	-0.016000	-0.016000	1.088000	0.000000	0.000000	0.000000	0.000000	0.000000	1772929775.634607	0.000000
43.000000	-49.020739	3.902586	9.441377	71.725671	-0.016000	-0.016000	1.088000	0.000000	0.000000	0.000000	0.000000	0.000000	1772929775.634607	0.000000
44.000000	-24.748788	2.791835	10.956037	58.396668	-0.016000	-0.016000	1.088000	0.000000	0.000000	0.000000	0.000000	0.000000	1772929775.650236	0.000000
44.000000	71.871527	3.431358	5.256429	-76.269650	-0.016000	-0.016000	1.088000	0.000000	0.000000	0.000000	0.000000	0.000000	1772929775.650236	0.000000
45.000000	-24.333659	8.525102	5.297568	63.946679	-0.016000	-0.016000	1.088000	0.000000	0.000000	0.000000	0.000000	0.000000	1772929775.651014	0.000000
45.000000	-37.864617	9.531135	11.285148	5.080654	-0.016000	-0.016000	1.088000	0.000000	0.000000	0.000000	0.000000	0.000000	1772929775.651014	0.000000
46.000000	51.088903	1.516529	5.851073	-6.868326	-0.016000	-0.016000	1.088000	0.000000	0.000000	0.000000	0.000000	0.000000	1772929775.664613	0.000000
46.000000	11.636699	6.868326	5.372366	-23.286487	-0.016000	-0.016000	1.088000	0.000000	0.000000	0.000000	0.000000	0.000000	1772929775.664613	0.000000
47.000000	-50.871989	10.069681	9.871466	27.478915	-0.016000	-0.016000	1.088000	0.000000	0.000000	0.000000	0.000000	0.000000	1772929775.680240	0.000000
47.000000	16.995975	9.878946	9.654552	65.663293	-0.016000	-0.016000	1.088000	0.000000	0.000000	0.000000	0.000000	0.000000	1772929775.680240	0.000000
48.000000	61.238992	7.160038	10.567087	-113.721008	-0.016000	-0.016000	1.088000	0.000000	0.000000	0.000000	0.000000	0.000000	1772929775.680965	0.000000
48.000000	-48.422355	10.073421	6.236283	66.699246	-0.016000	-0.016000	1.088000	0.000000	0.000000	0.000000	0.000000	0.000000	1772929775.680965	0.000000
49.000000	-9.475037	9.314221	6.509296	44.312205	-0.016000	-0.016000	1.088000	0.000000	0.000000	0.000000	0.000000	0.000000	1772929775.694607	0.000000
49.000000	69.500431	3.008750	10.817661	-86.692751	-0.016000	-0.016000	1.088000	0.000000	0.000000	0.000000	0.000000	0.000000	1772929775.694607	0.000000
50.000000	-34.809119	5.492043	15.802947	75.787203	-0.016000	-0.016000	1.072000	0.000000	0.000000	0.000000	0.000000	0.000000	1772929775.710255	0.000000
50.000000	-35.639377	10.522209	6.385879	3.087287	-0.016000	-0.016000	1.072000	0.000000	0.000000	0.000000	0.000000	0.000000	1772929775.710255	0.000000
51.000000	60.289057	9.258122	11.404825	-21.379138	-0.016000	-0.016000	1.072000	0.000000	0.000000	0.000000	0.000000	0.000000	1772929775.711110	0.000000
51.000000	14.920331	7.399392	8.768195	-32.647457	-0.016000	-0.016000	1.072000	0.000000	0.000000	0.000000	0.000000	0.000000	1772929775.711110	0.000000
52.000000	-54.507172	3.977384	11.307588	24.251381	-0.016000	-0.016000	1.072000	0.000000	0.000000	0.000000	0.000000	0.000000	1772929775.724557	0.000000
52.000000	23.290227	9.145925	6.591574	46.073698	-0.016000	-0.016000	1.072000	0.000000	0.000000	0.000000	0.000000	0.000000	1772929775.724557	0.000000
53.000000	57.050304	4.093321	7.088980	-90.245656	-0.016000	-0.016000	1.072000	0.000000	0.000000	0.000000	0.000000	0.000000	1772929775.740242	0.000000
53.000000	-60.150681	8.786895	6.973043	104.853705	-0.016000	-0.016000	1.072000	0.000000	0.000000	0.000000	0.000000	0.000000	1772929775.740242	0.000000
54.000000	0.173905	8.416645	4.837561	26.858092	-0.016000	-0.016000	1.072000	0.000000	0.000000	0.000000	0.000000	0.000000	1772929775.740970	0.000000
54.000000	82.623740	8.985110	7.803301	-104.180523	-0.016000	-0.016000	1.072000	0.000000	0.000000	0.000000	0.000000	0.000000	1772929775.740970	0.000000
55.000000	-32.568919	14.340646	8.689658	94.651258	-0.016000	-0.016000	1.072000	0.000000	0.000000	0.000000	0.000000	0.000000	1772929775.754610	0.000000
55.000000	-43.526826	10.436191	7.174998	13.319654	-0.016000	-0.016000	1.072000	0.000000	0.000000	0.000000	0.000000	0.000000	1772929775.754610	0.000000
56.000000	71.104848	7.021662	11.894752	-29.906110	-0.016000	-0.016000	1.072000	0.000000	0.000000	0.000000	0.000000	0.000000	1772929775.770254	0.000000
56.000000	21.222062	15.455137	9.198284	-3.270543	-0.016000	-0.016000	1.072000	0.000000	0.000000	0.000000	0.000000	0.000000	1772929775.770254	0.000000
57.000000	-57.102662	9.246903	8.068834	44.338384	-0.016000	-0.016000	1.072000	0.000000	0.000000	0.000000	0.000000	0.000000	1772929775.770990	0.000000
57.000000	35.568319	7.616306	6.501816	23.301447	-0.016000	-0.016000	1.072000	0.000000	0.000000	0.000000	0.000000	0.000000	1772929775.770990	0.000000
58.000000	57.050304	1.897999	11.561901	-87.695044	-0.016000	-0.016000	1.072000	0.000000	0.000000	0.000000	0.000000	0.000000	1772929775.784561	0.000000
58.000000	-58.609842	0.611474	7.148819	93.634005	-0.016000	-0.016000	1.072000	0.000000	0.000000	0.000000	0.000000	0.000000	1772929775.784561	0.000000
59.000000	-16.509788	10.892459	10.649365	48.886102	-0.016000	-0.016000	1.072000	0.000000	0.000000	0.000000	0.000000	0.000000	1772929775.800243	0.000000
59.000000	98.398638	11.453444	10.604486	-119.024186	-0.016000	-0.016000	1.072000	0.000000	0.000000	0.000000	0.000000	0.000000	1772929775.800243	0.000000
60.000000	-25.953036	-3.876406	8.334367	78.094721	-0.016000	-0.016000	1.072000	0.000000	0.000000	0.000000	0.000000	0.000000	1772929775.800954	0.000000
60.000000	-52.970073	7.713544	8.274529	23.439823	-0.016000	-0.016000	1.072000	0.000000	0.000000	0.000000	0.000000	0.000000	1772929775.800954	0.000000
61.000000	69.324656	9.897645	9.777968	-17.287688	-0.016000	-0.016000	1.072000	0.000000	0.000000	0.000000	0.000000	0.000000	1772929775.814563	0.000000
61.000000	12.904525	7.332074	9.770489	-17.699077	-0.016000	-0.016000	1.072000	0.000000	0.000000	0.000000	0.000000	0.000000	1772929775.814563	0.000000
62.000000	-53.751712	6.112866	10.473590	36.447195	-0.016000	-0.016000	1.072000	0.000000	0.000000	0.000000	0.000000	0.000000	1772929775.830317	0.000000
62.000000	35.186849	4.044702	8.199731	28.211935	-0.016000	-0.016000	1.072000	0.000000	0.000000	0.000000	0.000000	0.000000	1772929775.830317	0.000000
63.000000	73.894813	11.651658	9.931304	-126.855537	-0.016000	-0.016000	1.072000	0.000000	0.000000	0.000000	0.000000	0.000000	1772929775.831045	0.000000
63.000000	-64.945233	5.697738	8.899092	99.935737	-0.016000	-0.016000	1.072000	0.000000	0.000000	0.000000	0.000000	0.000000	1772929775.831045	0.000000
64.000000	-4.631866	3.857707	8.454044	51.339477	-0.016000	-0.016000	1.072000	0.000000	0.000000	0.000000	0.000000	0.000000	1772929775.844683	0.000000
64.000000	81.165179	2.933952	8.244609	-107.097645	-0.016000	-0.016000	1.072000	0.000000	0.000000	0.000000	0.000000	0.000000	1772929775.844683	0.000000
65.000000	-40.572305	6.449457	9.355360	89.127426	-0.016000	-0.016000	1.072000	0.000000	0.000000	0.000000	0.000000	0.000000	1772929775.860334	0.000000
65.000000	-32.303386	16.453690	4.463571	21.394098	-0.016000	-0.016000	1.072000	0.000000	0.000000	0.000000	0.000000	0.000000	1772929775.860334	0.000000
66.000000	74.676452	10.462370	7.436791	-23.570719	-0.016000	-0.016000	1.072000	0.000000	0.000000	0.000000	0.000000	0.000000	1772929775.861068	0.000000
66.000000	18.701370	5.013336	10.918638	-11.505802	-0.016000	-0.016000	1.072000	0.000000	0.000000	0.000000	0.000000	0.000000	1772929775.861068	0.000000
67.000000	-62.854629	16.502309	6.307341	66.665587	-0.016000	-0.016000	1.072000	0.000000	0.000000	0.000000	0.000000	0.000000	1772929775.874586	0.000000
67.000000	21.147264	3.977384	8.899092	29.872451	-0.016000	-0.016000	1.072000	0.000000	0.000000	0.000000	0.000000	0.000000	1772929775.874586	0.000000
68.000000	74.283763	12.220123	8.368026	-112.445702	-0.016000	-0.016000	1.072000	0.000000	0.000000	0.000000	0.000000	0.000000	1772929775.890324	0.000000
68.000000	-64.612382	-1.146279	9.415198	97.964809	-0.016000	-0.016000	1.072000	0.000000	0.000000	0.000000	0.000000	0.000000	1772929775.890324	0.000000
69.000000	-0.963024	1.613767	8.229650	50.026772	-0.016000	-0.016000	1.072000	0.000000	0.000000	0.000000	0.000000	0.000000	1772929775.891123	0.000000
69.000000	91.700477	10.956037	8.566241	-110.788926	-0.016000	-0.016000	1.072000	0.000000	0.000000	0.000000	0.000000	0.000000	1772929775.891123	0.000000
70.000000	-40.202055	7.107680	6.307341	107.572612	-0.016000	-0.016000	1.072000	0.000000	0.000000	0.000000	0.000000	0.000000	1772929775.904548	0.000000
70.000000	-57.951620	9.549835	6.714990	43.182755	-0.016000	-0.016000	1.072000	0.000000	0.000000	0.000000	0.000000	0.000000	1772929775.904548	0.000000
71.000000	79.063355	12.945664	12.545494	-34.554806	-0.016000	-0.016000	1.072000	0.000000	0.000000	0.000000	0.000000	0.000000	1772929775.920294	0.000000
71.000000	28.492428	5.447164	9.748049	-36.364917	-0.016000	-0.016000	1.072000	0.000000	0.000000	0.000000	0.000000	0.000000	1772929775.920294	0.000000
72.000000	-59.152128	2.687118	5.473344	67.480885	-0.016000	-0.016000	1.072000	0.000000	0.000000	0.000000	0.000000	0.000000	1772929775.920972	0.000000
72.000000	33.002747	6.988003	5.293828	53.923748	-0.016000	-0.016000	1.072000	0.000000	0.000000	0.000000	0.000000	0.000000	1772929775.920972	0.000000
73.000000	69.986618	4.990896	7.115160	-106.940569	-0.016000	-0.016000	1.072000	0.000000	0.000000	0.000000	0.000000	0.000000	1772929775.934637	0.000000
73.000000	-75.865741	6.198884	5.843594	107.258461	-0.016000	-0.016000	1.072000	0.000000	0.000000	0.000000	0.000000	0.000000	1772929775.934637	0.000000
74.000000	-2.178492	8.495183	7.088980	31.891997	-0.016000	-0.016000	1.072000	0.000000	0.000000	0.000000	0.000000	0.000000	1772929775.950287	0.000000
74.000000	94.557761	8.798115	6.602793	-125.000546	-0.016000	-0.016000	1.072000	0.000000	0.000000	0.000000	0.000000	0.000000	1772929775.950287	0.000000
75.000000	-41.724194	-0.446918	9.789188	102.093659	-0.016000	-0.016000	1.072000	0.000000	0.000000	0.000000	0.000000	0.000000	1772929775.951103	0.000000
75.000000	-40.635883	4.725364	11.240269	15.597253	-0.016000	-0.016000	1.072000	0.000000	0.000000	0.000000	0.000000	0.000000	1772929775.951103	0.000000
76.000000	69.350835	5.738876	9.706910	-19.310973	-0.016000	-0.016000	1.072000	0.000000	0.000000	0.000000	0.000000	0.000000	1772929775.964668	0.000000
76.000000	14.748295	2.511343	11.502062	4.037222	-0.016000	-0.016000	1.072000	0.000000	0.000000	0.000000	0.000000	0.000000	1772929775.964668	0.000000
77.000000	-59.993605	9.321701	10.795221	63.153821	-0.016000	-0.016000	1.072000	0.000000	0.000000	0.000000	0.000000	0.000000	1772929775.980364	0.000000
77.000000	44.080331	2.200931	6.269942	26.248488	-0.016000	-0.016000	1.072000	0.000000	0.000000	0.000000	0.000000	0.000000	1772929775.980364	0.000000
78.000000	72.574629	15.488796	13.386972	-110.482255	-0.016000	-0.016000	1.072000	0.000000	0.000000	0.000000	0.000000	0.000000	1772929775.981126	0.000000
78.000000	-73.651720	9.493736	4.949758	116.178122	-0.016000	-0.016000	1.072000	0.000000	0.000000	0.000000	0.000000	0.000000	1772929775.981126	0.000000
79.000000	-17.111912	11.053274	7.148819	58.531304	-0.016000	-0.016000	1.072000	0.000000	0.000000	0.000000	0.000000	0.000000	1772929775.994536	0.000000
79.000000	91.378846	8.771935	6.887026	-122.023586	-0.016000	-0.016000	1.072000	0.000000	0.000000	0.000000	0.000000	0.000000	1772929775.994536	0.000000
80.000000	-33.410396	2.814275	5.136753	82.021616	-0.016000	-0.016000	1.072000	0.000000	0.000000	0.000000	0.000000	0.000000	1772929776.010262	0.000000
80.000000	-43.889596	5.331227	5.297568	22.344032	-0.016000	-0.016000	1.072000	0.000000	0.000000	0.000000	0.000000	0.000000	1772929776.010262	0.000000
81.000000	80.260123	6.097907	10.578307	-48.684148	-0.016000	-0.016000	1.072000	0.000000	0.000000	0.000000	0.000000	0.000000	1772929776.011016	0.000000
81.000000	21.005148	4.295275	8.775675	-11.363686	-0.016000	-0.016000	1.072000	0.000000	0.000000	0.000000	0.000000	0.000000	1772929776.011016	0.000000
82.000000	-73.232851	9.347880	12.418338	95.115006	-0.016000	-0.016000	1.072000	0.000000	0.000000	0.000000	0.000000	0.000000	1772929776.024621	0.000000
82.000000	43.216414	2.941431	4.115760	10.851320	-0.016000	-0.016000	1.072000	0.000000	0.000000	0.000000	0.000000	0.000000	1772929776.024621	0.000000
83.000000	89.995083	8.611120	9.153405	-116.488534	-0.016000	-0.016000	1.072000	0.000000	0.000000	0.000000	0.000000	0.000000	1772929776.040258	0.000000
83.000000	-79.893613	4.792682	7.608826	-345.937006	-0.016000	-0.016000	1.072000	0.000000	0.000000	0.000000	0.000000	0.000000	1772929776.040258	0.000000
84.000000	-8.315668	4.601947	10.398792	-434.239784	-0.016000	-0.016000	1.072000	0.000000	0.000000	0.000000	0.000000	0.000000	1772929776.040974	0.000000
84.000000	105.755021	11.434744	8.439084	-609.547594	-0.016000	-0.016000	1.072000	0.000000	0.000000	0.000000	0.000000	0.000000	1772929776.040974	0.000000
85.000000	-44.001793	9.179584	8.491443	-831.864077	-0.016000	-0.016000	1.072000	0.000000	0.000000	0.000000	0.000000	0.000000	1772929776.054578	0.000000
85.000000	-46.399069	8.850473	9.366579	-931.887702	-0.016000	-0.016000	1.072000	0.000000	0.000000	0.000000	0.000000	0.000000	1772929776.054578	0.000000
86.000000	81.602747	8.727057	9.519915	-1017.613688	-0.016000	-0.016000	1.072000	0.000000	0.000000	0.000000	0.000000	0.000000	1772929776.070288	0.000000
86.000000	15.346679	8.139892	10.103340	-945.392480	-0.016000	-0.016000	1.072000	0.000000	0.000000	0.000000	0.000000	0.000000	1772929776.070288	0.000000
87.000000	-68.670173	8.525102	7.534028	-878.081761	-0.016000	-0.016000	1.072000	0.000000	0.000000	0.000000	0.000000	0.000000	1772929776.070976	0.000000
87.000000	34.322932	4.744063	4.848780	-927.366162	-0.016000	-0.016000	1.072000	0.000000	0.000000	0.000000	0.000000	0.000000	1772929776.070976	0.000000
88.000000	80.966964	4.044702	6.191404	-1082.904862	-0.016000	-0.016000	1.072000	0.000000	0.000000	0.000000	0.000000	0.000000	1772929776.084615	0.000000
88.000000	-66.093382	2.511343	5.447164	-842.649949	-0.016000	-0.016000	1.072000	0.000000	0.000000	0.000000	0.000000	0.000000	1772929776.084615	0.000000
89.000000	-9.804148	4.254136	7.485410	-915.065632	-0.016000	-0.016000	1.072000	0.000000	0.000000	0.000000	0.000000	0.000000	1772929776.100306	0.000000
89.000000	106.091612	11.225310	7.949157	-1113.392526	-0.016000	-0.016000	1.072000	0.000000	0.000000	0.000000	0.000000	0.000000	1772929776.100306	0.000000
90.000000	-54.623109	5.596760	6.314821	-1343.865731	-0.016000	-0.016000	1.072000	0.000000	0.000000	0.000000	0.000000	0.000000	1772929776.100993	0.000000
90.000000	-66.875021	0.402039	7.833220	-1406.920444	-0.016000	-0.016000	1.072000	0.000000	0.000000	0.000000	0.000000	0.000000	1772929776.100993	0.000000
91.000000	103.847672	9.175845	6.516776	-1556.149932	-0.016000	-0.016000	1.072000	0.000000	0.000000	0.000000	0.000000	0.000000	1772929776.114602	0.000000
91.000000	22.961116	-3.423878	7.728503	-1485.357366	-0.016000	-0.016000	1.072000	0.000000	0.000000	0.000000	0.000000	0.000000	1772929776.114602	0.000000
92.000000	-84.759223	9.078607	8.775675	-1349.972988	-0.016000	-0.016000	1.072000	0.000000	0.000000	0.000000	0.000000	0.000000	1772929776.130308	0.000000
92.000000	46.900215	10.327734	5.151712	-1448.410894	-0.016000	-0.016000	1.072000	0.000000	0.000000	0.000000	0.000000	0.000000	1772929776.130308	0.000000
93.000000	82.788295	1.886780	8.121193	-1579.685123	-0.016000	-0.016000	1.072000	0.000000	0.000000	0.000000	0.000000	0.000000	1772929776.131021	0.000000
93.000000	-87.182678	0.630173	4.833821	-1821.823075	-0.016000	-0.016000	1.072000	0.000000	0.000000	0.000000	0.000000	0.000000	1772929776.131021	0.000000
94.000000	2.567441	9.755529	8.678438	-1919.060474	-0.016000	-0.016000	1.072000	0.000000	0.000000	0.000000	0.000000	0.000000	1772929776.144663	0.000000
94.000000	104.748988	9.246903	11.625479	-2104.522113	-0.016000	-0.016000	1.072000	0.000000	0.000000	0.000000	0.000000	0.000000	1772929776.144663	0.000000
95.000000	-46.739400	5.776275	6.082947	-2324.228146	-0.016000	-0.016000	1.072000	0.000000	0.000000	0.000000	0.000000	0.000000	1772929776.160299	0.000000
95.000000	-47.517299	1.265956	9.523655	-2392.485060	-0.016000	-0.016000	1.072000	0.000000	0.000000	0.000000	0.000000	0.000000	1772929776.160299	0.000000
96.000000	88.353267	2.545002	6.905725	-2505.931185	-0.016000	-0.016000	1.072000	0.000000	0.000000	0.000000	0.000000	0.000000	1772929776.161094	0.000000
96.000000	3.386479	-1.497830	7.926718	-2444.783821	-0.016000	-0.016000	1.072000	0.000000	0.000000	0.000000	0.000000	0.000000	1772929776.161094	0.000000
97.000000	-74.010750	0.682532	2.500123	-2350.351347	-0.016000	-0.016000	1.072000	0.000000	0.000000	0.000000	0.000000	0.000000	1772929776.174594	0.000000
97.000000	46.062478	3.625833	4.628126	-2449.062266	-0.016000	-0.016000	1.072000	0.000000	0.000000	0.000000	0.000000	0.000000	1772929776.174594	0.000000
98.000000	76.636160	12.141585	9.355360	-2579.180866	-0.016000	-0.016000	1.072000	0.000000	0.000000	0.000000	0.000000	0.000000	1772929776.190274	0.000000
98.000000	-75.742324	7.231097	6.808488	-2817.799572	-0.016000	-0.016000	1.072000	0.000000	0.000000	0.000000	0.000000	0.000000	1772929776.190274	0.000000
99.000000	-20.582539	7.990296	10.125779	-2882.432523	-0.016000	-0.016000	1.072000	0.000000	0.000000	0.000000	0.000000	0.000000	1772929776.190983	0.000000
99.000000	109.401423	8.274529	9.056168	-3078.414501	-0.016000	-0.016000	1.072000	0.000000	0.000000	0.000000	0.000000	0.000000	1772929776.190983	0.000000
100.000000	-50.348403	1.419292	11.606780	-3322.269068	-0.016000	-0.016000	1.072000	0.000000	0.000000	0.000000	0.000000	0.000000	1772929776.205302	0.000000
100.000000	-55.928334	3.637053	7.930458	-3372.608121	-0.016000	-0.016000	1.072000	0.000000	0.000000	0.000000	0.000000	0.000000	1772929776.205302	0.000000
0.000000	93.121639	-5.174152	8.463394	-85.531512	-0.016000	-0.016000	1.072000	0.000000	0.000000	0.000000	0.000000	0.000000	1772929776.206041	0.000000
1.000000	-2.335568	4.949758	10.015452	16.287264	-0.016000	-0.016000	1.072000	0.000000	0.000000	0.000000	0.000000	0.000000	1772929776.219638	0.000000
1.000000	-79.758976	6.606533	5.082524	98.041477	-0.016000	-0.016000	1.072000	0.000000	0.000000	0.000000	0.000000	0.000000	1772929776.219638	0.000000
2.000000	45.273359	10.140739	10.310904	21.321170	-0.016000	-0.016000	1.072000	0.000000	0.000000	0.000000	0.000000	0.000000	1772929776.235288	0.000000
2.000000	82.687318	13.491689	10.236106	-124.318014	-0.016000	-0.016000	1.072000	0.000000	0.000000	0.000000	0.000000	0.000000	1772929776.235288	0.000000
3.000000	-78.180739	4.680485	10.965387	-352.723054	-0.016000	-0.016000	1.072000	0.000000	0.000000	0.000000	0.000000	0.000000	1772929776.236035	0.000000
3.000000	-7.855660	3.289242	7.146949	-462.466679	-0.016000	-0.016000	1.072000	0.000000	0.000000	0.000000	0.000000	0.000000	1772929776.236035	0.000000
4.000000	99.984355	0.776029	10.875629	-613.147248	-0.016000	-0.016000	1.072000	0.000000	0.000000	0.000000	0.000000	0.000000	1772929776.249729	0.000000
4.000000	-52.719500	5.604240	11.451574	-378.453566	-0.016000	-0.016000	1.072000	0.000000	0.000000	0.000000	0.000000	0.000000	1772929776.249729	0.000000
5.000000	-50.023032	7.986556	4.536499	-467.900753	-0.016000	-0.016000	1.072000	0.000000	0.000000	0.000000	0.000000	0.000000	1772929776.265272	0.000000
5.000000	90.387772	10.208057	6.537345	-556.289549	-0.016000	-0.016000	1.072000	0.000000	0.000000	0.000000	0.000000	0.000000	1772929776.265272	0.000000
6.000000	14.479023	11.038315	8.246479	-489.468756	-0.016000	-0.016000	1.072000	0.000000	0.000000	0.000000	0.000000	0.000000	1772929776.266053	0.000000
6.000000	-73.008457	7.698584	8.654128	-387.642500	-0.016000	-0.016000	1.072000	0.000000	0.000000	0.000000	0.000000	0.000000	1772929776.266053	0.000000
7.000000	33.186002	0.054229	5.639769	-465.836329	-0.016000	-0.016000	1.072000	0.000000	0.000000	0.000000	0.000000	0.000000	1772929776.279589	0.000000
7.000000	88.663678	3.195745	10.572697	-632.647086	-0.016000	-0.016000	1.072000	0.000000	0.000000	0.000000	0.000000	0.000000	1772929776.279589	0.000000
8.000000	-78.341554	10.645625	8.448434	-842.801415	-0.016000	-0.016000	1.072000	0.000000	0.000000	0.000000	0.000000	0.000000	1772929776.295251	0.000000
8.000000	-13.749742	7.369473	6.096037	-928.433904	-0.016000	-0.016000	1.072000	0.000000	0.000000	0.000000	0.000000	0.000000	1772929776.295251	0.000000
9.000000	116.937322	4.126980	8.085664	-1117.455927	-0.016000	-0.016000	1.072000	0.000000	0.000000	0.000000	0.000000	0.000000	1772929776.296013	0.000000
9.000000	-68.733751	8.566241	10.187487	-1340.583969	-0.016000	-0.016000	1.072000	0.000000	0.000000	0.000000	0.000000	0.000000	1772929776.296013	0.000000
10.000000	-59.851489	5.821154	11.720846	-1398.802991	-0.016000	-0.016000	1.072000	0.000000	0.000000	0.000000	0.000000	0.000000	1772929776.309571	0.000000
10.000000	86.636652	5.996930	11.960200	-1533.962976	-0.016000	-0.016000	1.072000	0.000000	0.000000	0.000000	0.000000	0.000000	1772929776.309571	0.000000
11.000000	22.340292	10.772782	11.066364	-1477.037958	-0.016000	-0.016000	1.072000	0.000000	0.000000	0.000000	0.000000	0.000000	1772929776.325272	0.000000
11.000000	-91.225510	7.481670	8.852343	-1350.446085	-0.016000	-0.016000	1.072000	0.000000	0.000000	0.000000	0.000000	0.000000	1772929776.325272	0.000000
12.000000	46.735660	9.243163	8.025825	-1466.356804	-0.016000	-0.016000	1.072000	0.000000	0.000000	0.000000	0.000000	0.000000	1772929776.325985	0.000000
12.000000	81.056722	9.688211	7.853790	-1602.672418	-0.016000	-0.016000	1.072000	0.000000	0.000000	0.000000	0.000000	0.000000	1772929776.325985	0.000000
13.000000	-86.475837	-0.495537	6.978653	-1817.800813	-0.016000	-0.016000	1.072000	0.000000	0.000000	0.000000	0.000000	0.000000	1772929776.339585	0.000000
13.000000	-6.011889	1.980277	5.340577	-1949.441551	-0.016000	-0.016000	1.072000	0.000000	0.000000	0.000000	0.000000	0.000000	1772929776.339585	0.000000
14.000000	112.082932	6.397099	6.930035	-2106.218158	-0.016000	-0.016000	1.072000	0.000000	0.000000	0.000000	0.000000	0.000000	1772929776.355292	0.000000
14.000000	-47.595837	12.496876	10.696114	-2331.347045	-0.016000	-0.016000	1.072000	0.000000	0.000000	0.000000	0.000000	0.000000	1772929776.355292	0.000000
15.000000	-58.202193	9.482516	10.565217	-2377.235618	-0.016000	-0.016000	1.072000	0.000000	0.000000	0.000000	0.000000	0.000000	1772929776.356004	0.000000
15.000000	91.659338	0.633913	9.050558	-2525.103782	-0.016000	-0.016000	1.072000	0.000000	0.000000	0.000000	0.000000	0.000000	1772929776.356004	0.000000
16.000000	21.008888	5.955791	10.430581	-2461.772316	-0.016000	-0.016000	1.072000	0.000000	0.000000	0.000000	0.000000	0.000000	1772929776.369576	0.000000
16.000000	-79.298969	6.382139	7.337684	-2343.071632	-0.016000	-0.016000	1.072000	0.000000	0.000000	0.000000	0.000000	0.000000	1772929776.369576	0.000000
17.000000	51.088903	6.427018	10.935467	-2448.144121	-0.016000	-0.016000	1.072000	0.000000	0.000000	0.000000	0.000000	0.000000	1772929776.385261	0.000000
17.000000	86.535675	6.531735	3.220054	-2584.489654	-0.016000	-0.016000	1.072000	0.000000	0.000000	0.000000	0.000000	0.000000	1772929776.385261	0.000000
18.000000	-96.981216	7.347033	7.924848	-2785.312931	-0.016000	-0.016000	1.072000	0.000000	0.000000	0.000000	0.000000	0.000000	1772929776.386002	0.000000
18.000000	-22.373951	9.187064	9.828457	-2889.588822	-0.016000	-0.016000	1.072000	0.000000	0.000000	0.000000	0.000000	0.000000	1772929776.386002	0.000000
19.000000	114.289473	7.436791	6.926295	-3088.723535	-0.016000	-0.016000	1.072000	0.000000	0.000000	0.000000	0.000000	0.000000	1772929776.399575	0.000000
19.000000	-35.130750	4.216737	6.133436	-3327.764851	-0.016000	-0.016000	1.072000	0.000000	0.000000	0.000000	0.000000	0.000000	1772929776.399575	0.000000
20.000000	-58.695860	5.409765	3.586564	-3373.911476	-0.016000	-0.016000	1.072000	0.000000	0.000000	0.000000	0.000000	0.000000	1772929776.415261	0.000000
20.000000	95.604933	-2.092474	7.872489	-3494.268936	-0.016000	-0.016000	1.072000	0.000000	0.000000	0.000000	0.000000	0.000000	1772929776.415261	0.000000
21.000000	13.566487	2.477684	5.819284	-3435.107459	-0.016000	-0.016000	1.072000	0.000000	0.000000	0.000000	0.000000	0.000000	1772929776.415986	0.000000
21.000000	-94.348326	2.709558	3.335991	-3307.662888	-0.016000	-0.016000	1.072000	0.000000	0.000000	0.000000	0.000000	0.000000	1772929776.415986	0.000000
22.000000	46.279392	2.660939	6.806618	-3429.396632	-0.016000	-0.016000	1.072000	0.000000	0.000000	0.000000	0.000000	0.000000	1772929776.429597	0.000000
22.000000	65.079869	6.569134	7.173128	-3551.814777	-0.016000	-0.016000	1.072000	0.000000	0.000000	0.000000	0.000000	0.000000	1772929776.429597	0.000000
23.000000	-79.968411	9.789188	8.138022	-3789.176878	-0.016000	-0.016000	1.072000	0.000000	0.000000	0.000000	0.000000	0.000000	1772929776.445328	0.000000
23.000000	-4.063401	8.300708	11.515152	-3879.839532	-0.016000	-0.016000	1.072000	0.000000	0.000000	0.000000	0.000000	0.000000	1772929776.445328	0.000000
24.000000	91.427464	11.857353	11.683447	-4046.964442	-0.016000	-0.016000	1.072000	0.000000	0.000000	0.000000	0.000000	0.000000	1772929776.445948	0.000000
24.000000	-57.330796	5.020816	5.639769	-3805.707235	-0.016000	-0.016000	1.072000	0.000000	0.000000	0.000000	0.000000	0.000000	1772929776.445948	0.000000
25.000000	-48.306418	1.927918	7.625656	-3875.931337	-0.016000	-0.016000	1.072000	0.000000	0.000000	0.000000	0.000000	0.000000	1772929776.459590	0.000000
25.000000	86.363640	7.567688	4.802032	-3996.501971	-0.016000	-0.016000	1.072000	0.000000	0.000000	0.000000	0.000000	0.000000	1772929776.459590	0.000000
26.000000	29.509681	9.347880	6.918815	-3941.820894	-0.016000	-0.016000	1.072000	0.000000	0.000000	0.000000	0.000000	0.000000	1772929776.475282	0.000000
26.000000	-86.573074	5.073174	7.820131	-3810.322272	-0.016000	-0.016000	1.072000	0.000000	0.000000	0.000000	0.000000	0.000000	1772929776.475282	0.000000
27.000000	34.487487	9.448857	8.467133	-3901.893722	-0.016000	-0.016000	1.072000	0.000000	0.000000	0.000000	0.000000	0.000000	1772929776.476012	0.000000
27.000000	82.926672	17.280208	8.093144	-4064.414815	-0.016000	-0.016000	1.072000	0.000000	0.000000	0.000000	0.000000	0.000000	1772929776.476012	0.000000
28.000000	-83.697091	13.289734	11.137422	-4288.208558	-0.016000	-0.016000	1.072000	0.000000	0.000000	0.000000	0.000000	0.000000	1772929776.489570	0.000000
28.000000	-12.250042	-5.357407	6.484987	-4378.706657	-0.016000	-0.016000	1.072000	0.000000	0.000000	0.000000	0.000000	0.000000	1772929776.489570	0.000000
29.000000	96.876499	4.014783	9.129096	-4553.348766	-0.016000	-0.016000	1.072000	0.000000	0.000000	0.000000	0.000000	0.000000	1772929776.505309	0.000000
29.000000	-47.599577	0.551635	9.989273	-4790.598669	-0.016000	-0.016000	1.072000	0.000000	0.000000	0.000000	0.000000	0.000000	1772929776.505309	0.000000
30.000000	-61.575583	4.456091	9.921955	-4847.108557	-0.016000	-0.016000	1.072000	0.000000	0.000000	0.000000	0.000000	0.000000	1772929776.506039	0.000000
30.000000	86.116806	6.961824	3.537945	-4955.247764	-0.016000	-0.016000	1.072000	0.000000	0.000000	0.000000	0.000000	0.000000	1772929776.506039	0.000000
31.000000	29.322686	11.034575	8.388596	-4912.983155	-0.016000	-0.016000	1.072000	0.000000	0.000000	0.000000	0.000000	0.000000	1772929776.519607	0.000000
31.000000	-84.504909	1.273436	9.151535	-4795.677453	-0.016000	-0.016000	1.072000	0.000000	0.000000	0.000000	0.000000	0.000000	1772929776.519607	0.000000
32.000000	35.822632	10.151958	10.269765	-4867.281578	-0.016000	-0.016000	1.072000	0.000000	0.000000	0.000000	0.000000	0.000000	1772929776.535301	0.000000
32.000000	88.039115	6.449457	9.641462	-5029.761531	-0.016000	-0.016000	1.072000	0.000000	0.000000	0.000000	0.000000	0.000000	1772929776.535301	0.000000
33.000000	-87.623986	8.450304	6.387749	-5257.811281	-0.016000	-0.016000	1.072000	0.000000	0.000000	0.000000	0.000000	0.000000	1772929776.536069	0.000000
33.000000	-18.940723	0.192605	9.241293	-5324.998583	-0.016000	-0.016000	1.072000	0.000000	0.000000	0.000000	0.000000	0.000000	1772929776.536069	0.000000
34.000000	110.385017	4.478530	5.852943	-5528.572558	-0.016000	-0.016000	1.072000	0.000000	0.000000	0.000000	0.000000	0.000000	1772929776.549583	0.000000
34.000000	-33.717068	17.130612	7.790212	-5289.536852	-0.016000	-0.016000	1.072000	0.000000	0.000000	0.000000	0.000000	0.000000	1772929776.549583	0.000000
35.000000	-64.118715	7.870619	9.641462	-5331.995936	-0.016000	-0.016000	1.072000	0.000000	0.000000	0.000000	0.000000	0.000000	1772929776.565285	0.000000
35.000000	85.929811	11.064494	9.106656	-5462.836336	-0.016000	-0.016000	1.072000	0.000000	0.000000	0.000000	0.000000	0.000000	1772929776.565285	0.000000
36.000000	16.887518	2.769396	9.476906	-5410.589934	-0.016000	-0.016000	1.072000	0.000000	0.000000	0.000000	0.000000	0.000000	1772929776.565999	0.000000
36.000000	-79.631820	5.211551	10.243586	-5307.443493	-0.016000	-0.016000	1.072000	0.000000	0.000000	0.000000	0.000000	0.000000	1772929776.565999	0.000000
37.000000	43.736260	-3.607134	10.647495	-5394.153074	-0.016000	-0.016000	1.072000	0.000000	0.000000	0.000000	0.000000	0.000000	1772929776.579584	0.000000
37.000000	74.788649	3.251843	7.176868	-5524.327771	-0.016000	-0.016000	1.072000	0.000000	0.000000	0.000000	0.000000	0.000000	1772929776.579584	0.000000
38.000000	-76.710958	10.870019	10.677414	-5740.095689	-0.016000	-0.016000	1.072000	0.000000	0.000000	0.000000	0.000000	0.000000	1772929776.595289	0.000000
38.000000	-19.494229	4.033482	10.785871	-5818.783184	-0.016000	-0.016000	1.072000	0.000000	0.000000	0.000000	0.000000	0.000000	1772929776.595289	0.000000
39.000000	105.407210	12.006949	13.680554	-6040.144123	-0.016000	-0.016000	1.072000	0.000000	0.000000	0.000000	0.000000	0.000000	1772929776.596006	0.000000
39.000000	-48.912282	8.629819	11.230920	-6249.135342	-0.016000	-0.016000	1.072000	0.000000	0.000000	0.000000	0.000000	0.000000	1772929776.596006	0.000000
40.000000	-65.423940	5.533182	8.489573	-6317.878443	-0.016000	-0.016000	1.072000	0.000000	0.000000	0.000000	0.000000	0.000000	1772929776.609608	0.000000
40.000000	87.336014	7.982816	9.910735	-6469.725861	-0.016000	-0.016000	1.072000	0.000000	0.000000	0.000000	0.000000	0.000000	1772929776.609608	0.000000
41.000000	22.770381	9.168365	15.079277	-6367.346100	-0.016000	-0.016000	1.072000	0.000000	0.000000	0.000000	0.000000	0.000000	1772929776.625287	0.000000
41.000000	-83.240823	9.785448	9.076737	-6264.633488	-0.016000	-0.016000	1.072000	0.000000	0.000000	0.000000	0.000000	0.000000	1772929776.625287	0.000000
42.000000	51.163701	4.687965	5.359277	-6362.992857	-0.016000	-0.016000	1.072000	0.000000	0.000000	0.000000	0.000000	0.000000	1772929776.626009	0.000000
42.000000	88.992789	4.168119	4.600077	-6518.494157	-0.016000	-0.016000	1.072000	0.000000	0.000000	0.000000	0.000000	0.000000	1772929776.626009	0.000000
43.000000	-81.864540	5.346187	9.963093	-6729.175811	-0.016000	-0.016000	1.072000	0.000000	0.000000	0.000000	0.000000	0.000000	1772929776.639604	0.000000
43.000000	-23.682916	3.584694	7.599477	-6816.311740	-0.016000	-0.016000	1.072000	0.000000	0.000000	0.000000	0.000000	0.000000	1772929776.639604	0.000000
44.000000	102.886518	-3.315421	10.150088	-7005.154248	-0.016000	-0.016000	1.072000	0.000000	0.000000	0.000000	0.000000	0.000000	1772929776.655287	0.000000
44.000000	-42.928442	5.559361	9.226333	-7218.476272	-0.016000	-0.016000	1.072000	0.000000	0.000000	0.000000	0.000000	0.000000	1772929776.655287	0.000000
45.000000	-35.037253	1.509050	10.269765	-7303.379481	-0.016000	-0.016000	1.072000	0.000000	0.000000	0.000000	0.000000	0.000000	1772929776.656020	0.000000
45.000000	90.758022	8.495183	10.322124	-7395.728830	-0.016000	-0.016000	1.072000	0.000000	0.000000	0.000000	0.000000	0.000000	1772929776.656020	0.000000
46.000000	17.527041	6.872066	7.565818	-7361.744359	-0.016000	-0.016000	1.072000	0.000000	0.000000	0.000000	0.000000	0.000000	1772929776.686076	0.000000
46.000000	-79.082055	3.225664	8.332497	-7241.570154	-0.016000	-0.016000	1.072000	0.000000	0.000000	0.000000	0.000000	0.000000	1772929776.686076	0.000000
47.000000	30.579292	-2.952651	6.309211	-7360.420435	-0.016000	-0.016000	1.072000	0.000000	0.000000	0.000000	0.000000	0.000000	1772929776.686679	0.000000
47.000000	80.334921	8.487703	5.411635	-7481.256602	-0.016000	-0.016000	1.072000	0.000000	0.000000	0.000000	0.000000	0.000000	1772929776.686679	0.000000
48.000000	-79.583201	5.260169	7.928588	-7715.563205	-0.016000	-0.016000	1.072000	0.000000	0.000000	0.000000	0.000000	0.000000	1772929776.687495	0.000000
48.000000	-12.336060	3.528596	8.788765	-7801.726760	-0.016000	-0.016000	1.072000	0.000000	0.000000	0.000000	0.000000	0.000000	1772929776.687495	0.000000
49.000000	105.496968	4.097060	12.293051	-7976.746598	-0.016000	-0.016000	1.072000	0.000000	0.000000	0.000000	0.000000	0.000000	1772929776.699853	0.000000
49.000000	-51.317037	8.001516	7.259146	-8220.533846	-0.016000	-0.016000	1.072000	0.000000	0.000000	0.000000	0.000000	0.000000	1772929776.699853	0.000000
50.000000	-76.520223	13.218676	8.710227	-8253.751638	-0.016000	-0.016000	1.072000	0.000000	0.000000	0.000000	0.000000	0.000000	1772929776.715286	0.000000
50.000000	93.749942	11.378646	12.042478	-8407.326890	-0.016000	-0.016000	1.072000	0.000000	0.000000	0.000000	0.000000	0.000000	1772929776.715286	0.000000
51.000000	28.395190	6.602793	7.214267	-8368.158917	-0.016000	-0.016000	1.072000	0.000000	0.000000	0.000000	0.000000	0.000000	1772929776.716016	0.000000
51.000000	-81.239977	3.046149	6.507426	-8247.434947	-0.016000	-0.016000	1.072000	0.000000	0.000000	0.000000	0.000000	0.000000	1772929776.716016	0.000000
52.000000	42.449734	6.464417	8.437214	-8336.567982	-0.016000	-0.016000	1.072000	0.000000	0.000000	0.000000	0.000000	0.000000	1772929776.729587	0.000000
52.000000	81.886979	4.452351	7.861270	-8465.897463	-0.016000	-0.016000	1.072000	0.000000	0.000000	0.000000	0.000000	0.000000	1772929776.729587	0.000000
53.000000	-84.183278	5.147972	7.894929	-8671.365696	-0.016000	-0.016000	1.072000	0.000000	0.000000	0.000000	0.000000	0.000000	1772929776.745259	0.000000
53.000000	-9.519915	2.242070	10.146349	-8773.008697	-0.016000	-0.016000	1.072000	0.000000	0.000000	0.000000	0.000000	0.000000	1772929776.745259	0.000000
54.000000	105.964455	9.647072	5.134883	-8963.070413	-0.016000	-0.016000	1.072000	0.000000	0.000000	0.000000	0.000000	0.000000	1772929776.745986	0.000000
54.000000	-41.350204	6.000669	5.097484	-8723.862672	-0.016000	-0.016000	1.072000	0.000000	0.000000	0.000000	0.000000	0.000000	1772929776.745986	0.000000
55.000000	-57.222339	12.519315	8.979500	-8772.391614	-0.016000	-0.016000	1.072000	0.000000	0.000000	0.000000	0.000000	0.000000	1772929776.759637	0.000000
55.000000	91.292828	2.036376	10.352043	-8877.116292	-0.016000	-0.016000	1.072000	0.000000	0.000000	0.000000	0.000000	0.000000	1772929776.759637	0.000000
56.000000	12.867126	13.491689	6.597184	-8826.302272	-0.016000	-0.016000	1.072000	0.000000	0.000000	0.000000	0.000000	0.000000	1772929776.775258	0.000000
56.000000	-80.963224	10.050981	7.887449	-8715.978963	-0.016000	-0.016000	1.072000	0.000000	0.000000	0.000000	0.000000	0.000000	1772929776.775258	0.000000
57.000000	38.163809	-1.340754	8.276399	-8797.508782	-0.016000	-0.016000	1.072000	0.000000	0.000000	0.000000	0.000000	0.000000	1772929776.775994	0.000000
57.000000	84.635806	5.237730	6.765479	-8956.417131	-0.016000	-0.016000	1.072000	0.000000	0.000000	0.000000	0.000000	0.000000	1772929776.775994	0.000000
58.000000	-77.817968	6.322301	11.208480	-9176.732768	-0.016000	-0.016000	1.072000	0.000000	0.000000	0.000000	0.000000	0.000000	1772929776.789612	0.000000
58.000000	-29.906110	10.477330	8.369896	-9243.815353	-0.016000	-0.016000	1.072000	0.000000	0.000000	0.000000	0.000000	0.000000	1772929776.789612	0.000000
59.000000	112.849611	16.767841	9.963093	-9458.171459	-0.016000	-0.016000	1.072000	0.000000	0.000000	0.000000	0.000000	0.000000	1772929776.805340	0.000000
59.000000	-26.506541	7.709804	8.074444	-9218.967458	-0.016000	-0.016000	1.072000	0.000000	0.000000	0.000000	0.000000	0.000000	1772929776.805340	0.000000
60.000000	-71.254444	-1.976537	11.331897	-9263.393729	-0.016000	-0.016000	1.072000	0.000000	0.000000	0.000000	0.000000	0.000000	1772929776.806062	0.000000
60.000000	88.719777	14.823093	5.920262	-9370.100555	-0.016000	-0.016000	1.072000	0.000000	0.000000	0.000000	0.000000	0.000000	1772929776.806062	0.000000
61.000000	22.452489	9.037468	6.690681	-9330.925103	-0.016000	-0.016000	1.072000	0.000000	0.000000	0.000000	0.000000	0.000000	1772929776.819651	0.000000
61.000000	-99.969396	3.472497	7.218007	-9195.054537	-0.016000	-0.016000	1.072000	0.000000	0.000000	0.000000	0.000000	0.000000	1772929776.819651	0.000000
62.000000	50.355883	7.227357	9.828457	-9307.677885	-0.016000	-0.016000	1.072000	0.000000	0.000000	0.000000	0.000000	0.000000	1772929776.835259	0.000000
62.000000	87.541708	4.938538	9.503086	-9447.673560	-0.016000	-0.016000	1.072000	0.000000	0.000000	0.000000	0.000000	0.000000	1772929776.835259	0.000000
63.000000	-86.475837	-1.909219	5.359277	-9654.129127	-0.016000	-0.016000	1.072000	0.000000	0.000000	0.000000	0.000000	0.000000	1772929776.836005	0.000000
63.000000	-18.955683	10.735383	7.060931	-9756.123679	-0.016000	-0.016000	1.072000	0.000000	0.000000	0.000000	0.000000	0.000000	1772929776.836005	0.000000
64.000000	108.092458	10.638145	10.295945	-9937.419069	-0.016000	-0.016000	1.072000	0.000000	0.000000	0.000000	0.000000	0.000000	1772929776.849685	0.000000
64.000000	-50.213767	8.689658	8.990719	-9695.428842	-0.016000	-0.016000	1.072000	0.000000	0.000000	0.000000	0.000000	0.000000	1772929776.849685	0.000000
65.000000	-61.964532	7.477930	11.066364	-9742.981670	-0.016000	-0.016000	1.072000	0.000000	0.000000	0.000000	0.000000	0.000000	1772929776.865288	0.000000
65.000000	92.523255	7.178738	12.865256	-9870.388842	-0.016000	-0.016000	1.072000	0.000000	0.000000	0.000000	0.000000	0.000000	1772929776.865288	0.000000
66.000000	19.168857	12.433297	10.071551	-9815.225318	-0.016000	-0.016000	1.072000	0.000000	0.000000	0.000000	0.000000	0.000000	1772929776.865993	0.000000
66.000000	-86.745110	-0.690012	6.297992	-9690.716568	-0.016000	-0.016000	1.072000	0.000000	0.000000	0.000000	0.000000	0.000000	1772929776.865993	0.000000
67.000000	45.987680	7.197437	6.110997	-9808.497237	-0.016000	-0.016000	1.072000	0.000000	0.000000	0.000000	0.000000	0.000000	1772929776.879586	0.000000
67.000000	80.488257	5.611720	4.076491	-9921.520754	-0.016000	-0.016000	1.072000	0.000000	0.000000	0.000000	0.000000	0.000000	1772929776.879586	0.000000
68.000000	-73.068295	4.048442	9.293651	-10158.198453	-0.016000	-0.016000	1.072000	0.000000	0.000000	0.000000	0.000000	0.000000	1772929776.895255	0.000000
68.000000	-12.279962	4.011043	4.787072	-10255.275036	-0.016000	-0.016000	1.072000	0.000000	0.000000	0.000000	0.000000	0.000000	1772929776.895255	0.000000
69.000000	114.775660	8.510142	9.682601	-10454.462108	-0.016000	-0.016000	1.072000	0.000000	0.000000	0.000000	0.000000	0.000000	1772929776.895998	0.000000
69.000000	-56.279884	6.307341	10.946687	-10664.754812	-0.016000	-0.016000	1.072000	0.000000	0.000000	0.000000	0.000000	0.000000	1772929776.895998	0.000000
70.000000	-64.287010	8.412905	8.325017	-10717.154550	-0.016000	-0.016000	1.072000	0.000000	0.000000	0.000000	0.000000	0.000000	1772929776.909603	0.000000
70.000000	88.876852	6.864586	6.189534	-10850.194012	-0.016000	-0.016000	1.072000	0.000000	0.000000	0.000000	0.000000	0.000000	1772929776.909603	0.000000
71.000000	29.371304	2.720777	6.118476	-10807.001907	-0.016000	-0.016000	1.072000	0.000000	0.000000	0.000000	0.000000	0.000000	1772929776.925410	0.000000
71.000000	-84.426372	4.358853	9.192674	-10665.379375	-0.016000	-0.016000	1.072000	0.000000	0.000000	0.000000	0.000000	0.000000	1772929776.925410	0.000000
72.000000	45.149942	3.655752	9.379669	-10773.982330	-0.016000	-0.016000	1.072000	0.000000	0.000000	0.000000	0.000000	0.000000	1772929776.926059	0.000000
72.000000	90.305494	3.019969	9.764879	-10912.811157	-0.016000	-0.016000	1.072000	0.000000	0.000000	0.000000	0.000000	0.000000	1772929776.926059	0.000000
73.000000	-92.164225	5.697738	11.017745	-11107.987185	-0.016000	-0.016000	1.072000	0.000000	0.000000	0.000000	0.000000	0.000000	1772929776.939588	0.000000
73.000000	-15.193344	4.227957	8.512012	-11212.364053	-0.016000	-0.016000	1.072000	0.000000	0.000000	0.000000	0.000000	0.000000	1772929776.939588	0.000000
74.000000	115.194528	9.059908	7.296545	-11413.787585	-0.016000	-0.016000	1.072000	0.000000	0.000000	0.000000	0.000000	0.000000	1772929776.955255	0.000000
74.000000	-46.342970	12.605333	11.387995	-11647.708978	-0.016000	-0.016000	1.072000	0.000000	0.000000	0.000000	0.000000	0.000000	1772929776.955255	0.000000
75.000000	-53.501139	6.696291	11.234659	-11702.850063	-0.016000	-0.016000	1.072000	0.000000	0.000000	0.000000	0.000000	0.000000	1772929776.955993	0.000000
75.000000	88.682378	8.925271	9.058038	-11817.384499	-0.016000	-0.016000	1.072000	0.000000	0.000000	0.000000	0.000000	0.000000	1772929776.955993	0.000000
76.000000	21.057507	3.322901	10.108950	-11781.444060	-0.016000	-0.016000	1.072000	0.000000	0.000000	0.000000	0.000000	0.000000	1772929776.969610	0.000000
76.000000	-83.412859	3.876406	8.325017	-11644.881613	-0.016000	-0.016000	1.072000	0.000000	0.000000	0.000000	0.000000	0.000000	1772929776.969610	0.000000
77.000000	45.168642	6.602793	8.239000	-11751.659497	-0.016000	-0.016000	1.072000	0.000000	0.000000	0.000000	0.000000	0.000000	1772929776.985325	0.000000
77.000000	75.185079	8.154852	11.144902	-11884.889693	-0.016000	-0.016000	1.072000	0.000000	0.000000	0.000000	0.000000	0.000000	1772929776.985325	0.000000
78.000000	-75.506710	0.271143	8.983240	-12115.968761	-0.016000	-0.016000	1.072000	0.000000	0.000000	0.000000	0.000000	0.000000	1772929776.986008	0.000000
78.000000	-22.643224	6.988003	7.760292	-12212.312324	-0.016000	-0.016000	1.072000	0.000000	0.000000	0.000000	0.000000	0.000000	1772929776.986008	0.000000
79.000000	93.981816	1.871820	7.606957	-12386.935733	-0.016000	-0.016000	1.072000	0.000000	0.000000	0.000000	0.000000	0.000000	1772929776.999609	0.000000
79.000000	-36.836145	9.927564	5.351797	-12163.622567	-0.016000	-0.016000	1.072000	0.000000	0.000000	0.000000	0.000000	0.000000	1772929776.999609	0.000000
80.000000	-55.445887	7.410612	5.766926	-12194.581458	-0.016000	-0.016000	1.072000	0.000000	0.000000	0.000000	0.000000	0.000000	1772929777.015252	0.000000
80.000000	93.835960	3.992343	8.773805	-12311.640327	-0.016000	-0.016000	1.072000	0.000000	0.000000	0.000000	0.000000	0.000000	1772929777.015252	0.000000
81.000000	19.688703	10.241716	7.543378	-12276.806899	-0.016000	-0.016000	1.072000	0.000000	0.000000	0.000000	0.000000	0.000000	1772929777.016079	0.000000
81.000000	-98.746448	11.468403	10.206187	-12126.466661	-0.016000	-0.016000	1.072000	0.000000	0.000000	0.000000	0.000000	0.000000	1772929777.016079	0.000000
82.000000	35.583278	6.943124	7.442401	-12261.690223	-0.016000	-0.016000	1.072000	0.000000	0.000000	0.000000	0.000000	0.000000	1772929777.029683	0.000000
82.000000	89.699630	3.846487	4.910489	-12397.444852	-0.016000	-0.016000	1.072000	0.000000	0.000000	0.000000	0.000000	0.000000	1772929777.029683	0.000000
83.000000	-74.156606	11.894752	9.562924	-12609.727183	-0.016000	-0.016000	1.072000	0.000000	0.000000	0.000000	0.000000	0.000000	1772929777.045362	0.000000
83.000000	-18.222663	1.284656	13.527218	-12689.121519	-0.016000	-0.016000	1.072000	0.000000	0.000000	0.000000	0.000000	0.000000	1772929777.045362	0.000000
84.000000	112.587818	3.094767	8.156722	-12893.469653	-0.016000	-0.016000	1.072000	0.000000	0.000000	0.000000	0.000000	0.000000	1772929777.046000	0.000000
84.000000	-44.428142	8.513882	12.315491	-13123.561388	-0.016000	-0.016000	1.072000	0.000000	0.000000	0.000000	0.000000	0.000000	1772929777.046000	0.000000
85.000000	-59.556037	8.764456	7.808911	-13172.479279	-0.016000	-0.016000	1.072000	0.000000	0.000000	0.000000	0.000000	0.000000	1772929777.059589	0.000000
85.000000	89.340600	4.471050	9.686341	-13295.009621	-0.016000	-0.016000	1.072000	0.000000	0.000000	0.000000	0.000000	0.000000	1772929777.059589	0.000000
86.000000	6.797268	10.193097	12.622162	-13241.113923	-0.016000	-0.016000	1.072000	0.000000	0.000000	0.000000	0.000000	0.000000	1772929777.075298	0.000000
86.000000	-89.493936	9.576014	9.454467	-13112.872754	-0.016000	-0.016000	1.072000	0.000000	0.000000	0.000000	0.000000	0.000000	1772929777.075298	0.000000
87.000000	52.192174	9.145925	9.282432	-13241.903042	-0.016000	-0.016000	1.072000	0.000000	0.000000	0.000000	0.000000	0.000000	1772929777.076014	0.000000
87.000000	81.475590	15.313020	7.326464	-13369.089560	-0.016000	-0.016000	1.072000	0.000000	0.000000	0.000000	0.000000	0.000000	1772929777.076014	0.000000
88.000000	-79.687918	5.406025	7.225487	-13557.219617	-0.016000	-0.016000	1.072000	0.000000	0.000000	0.000000	0.000000	0.000000	1772929777.089586	0.000000
